x, pressure
0.000000000000000000e+00,0.000000000000000000e+00
1.500000003318291472e-09,1.303187673999999951e+01
3.850000005911624652e-09,1.624999826000000169e+01
7.620000005204019624e-09,1.665996803000000170e+01
1.287000000615989865e-08,1.642586998000000165e+01
1.967000000036023396e-08,1.638585295000000031e+01
2.807000000615289619e-08,1.684694753000000134e+01
3.818000000421761702e-08,1.795328578999999891e+01
5.007000000034622904e-08,1.980942943999999883e+01
6.384000000281275280e-08,2.253679517000000132e+01
7.959000000568038822e-08,2.628547203999999837e+01
9.744000000466712938e-08,3.128604467999999983e+01
1.174900000009415584e-07,3.780541477999999955e+01
1.398600000044325595e-07,4.615828468000000129e+01
1.646700000037526519e-07,5.670230530999999985e+01
1.920700000042074760e-07,6.979634230000000628e+01
2.221900000023424495e-07,8.582555268999999498e+01
2.551700000026357825e-07,1.050317491999999930e+02
2.911600000032876736e-07,1.273422683999999947e+02
3.303400000049805326e-07,1.517683059000000014e+02
3.728699999996365465e-07,1.753186475999999914e+02
4.189200000013215783e-07,1.944862792000000127e+02
4.686800000044399733e-07,2.147238493000000119e+02
5.223500000042235864e-07,2.321185261999999909e+02
5.801200000021822573e-07,2.529831020999999964e+02
6.422200000031352820e-07,2.714009591999999884e+02
7.088700000039694288e-07,2.939720515999999861e+02
7.803000000023985516e-07,3.122862172000000101e+02
8.567600000048969657e-07,3.361847708999999895e+02
9.385100000045554005e-07,3.545782371000000239e+02
1.025820000002397643e-06,3.794697254999999814e+02
1.118959999999447055e-06,3.987460882999999967e+02
1.218250000000864549e-06,4.247560700000000224e+02
1.323990000003050257e-06,4.457895517000000041e+02
1.436500000004059543e-06,4.732493703999999752e+02
1.556130000004429769e-06,4.968750158000000283e+02
1.683230000004698510e-06,5.261979548000000477e+02
1.818180000000779792e-06,5.528524310000000241e+02
1.961370000003626141e-06,5.875560921999999664e+02
2.113220000005355862e-06,6.252352174999999761e+02
2.274140000004365403e-06,6.654324481999999534e+02
2.444590000003188234e-06,6.975542666000000054e+02
2.625030000004358244e-06,7.279178272000000334e+02
2.815970000000333978e-06,7.624173948999999766e+02
3.017930000005719510e-06,8.018963889999999992e+02
3.231420000005868893e-06,8.465324831000000358e+02
3.457040000000688576e-06,8.961230794000000515e+02
3.695360000001812622e-06,9.505037254999999732e+02
3.947010000004525198e-06,1.010288535000000024e+03
4.212610000003280532e-06,1.075812243999999964e+03
4.492869999999982447e-06,1.146978841000000102e+03
4.788490000002809733e-06,1.223541183999999930e+03
5.100240000004419118e-06,1.305478464000000031e+03
5.428860000002089182e-06,1.392537765000000036e+03
5.775200000002200795e-06,1.484318684000000076e+03
6.140100000003201662e-06,1.579874205999999958e+03
6.524470000002224709e-06,1.678460135000000037e+03
6.929190000001028951e-06,1.779352386999999908e+03
7.355300000000397800e-06,1.881389296999999942e+03
7.803810000005739916e-06,1.983697740999999951e+03
8.275810000000660991e-06,2.085511101000000053e+03
8.772380000003465576e-06,2.186050491999999849e+03
9.294760000003066355e-06,2.284510146000000077e+03
9.844120000003897232e-06,2.380089038999999957e+03
1.042180000000314493e-05,2.472028197000000091e+03
1.102903000000310456e-05,2.559677152000000206e+03
1.166734000000246860e-05,2.642480893999999807e+03
1.233818000000042030e-05,2.719645149999999830e+03
1.304318000000392959e-05,2.791423964999999953e+03
1.378386000000375662e-05,2.857938051000000087e+03
1.456205000000210295e-05,2.918939718000000084e+03
1.537946000000545282e-05,2.974511512000000039e+03
1.623803000000378940e-05,3.024811916999999994e+03
1.713952000000062902e-05,3.070149625999999898e+03
1.808618000000450455e-05,3.110861574999999903e+03
1.908010000000359531e-05,3.147298232000000098e+03
2.012366000000298397e-05,3.179809756000000107e+03
2.121898000000044376e-05,3.208727620999999999e+03
2.236878000000075249e-05,3.234357425000000148e+03
2.357547000000437352e-05,3.256976466000000073e+03
2.484186000000221316e-05,3.276838013000000046e+03
2.617036000000183630e-05,3.294163813000000118e+03
2.756441000000364622e-05,3.309160930999999891e+03
2.902702000000090103e-05,3.322033843000000161e+03
3.056177999999931693e-05,3.332982327000000168e+03
3.217169000000552430e-05,3.342172566000000188e+03
3.386090000000052821e-05,3.349722918999999820e+03
3.563287000000059656e-05,3.355706548000000112e+03
3.749187000000375801e-05,3.360179180000000088e+03
3.944119000000511987e-05,3.363190114999999878e+03
4.148611000000101962e-05,3.364824643999999807e+03
4.363089000000286156e-05,3.365242048000000068e+03
4.588092000000188158e-05,3.364676677999999811e+03
4.824020000000217454e-05,3.363387550999999803e+03
5.071509000000417857e-05,3.361606776999999965e+03
5.331033000000218083e-05,3.359446990999999798e+03
5.603219000000336911e-05,3.356793548000000101e+03
5.888464000000226130e-05,3.353240690999999970e+03
6.187618000000582848e-05,3.348294224000000213e+03
6.501295000000339389e-05,3.341606185000000096e+03
6.830338000000323831e-05,3.333298761999999897e+03
7.175274000000086505e-05,3.323904801000000134e+03
7.537127000000509486e-05,3.314259040999999797e+03
7.916565000000019977e-05,3.305118429999999989e+03
8.314568000000121747e-05,3.296702791000000161e+03
8.731616000000031158e-05,3.288417894000000160e+03
9.169059000000601590e-05,3.279153586999999789e+03
9.627724999999997678e-05,3.267943159999999807e+03
1.010890800000012734e-04,3.254598473000000013e+03
1.061319699999998552e-04,3.239877355000000080e+03
1.114219900000037447e-04,3.225173740000000180e+03
1.169674100000008758e-04,3.211706416999999874e+03
1.227825600000045296e-04,3.199663211000000047e+03
1.288705700000036900e-04,3.187974834999999985e+03
1.352533500000063814e-04,3.175238386999999875e+03
1.419420700000060263e-04,3.160932353000000148e+03
1.489568600000055099e-04,3.145721723999999995e+03
1.563037000000022691e-04,3.130584897000000183e+03
1.640078000000002494e-04,3.115763852000000043e+03
1.720797200000063695e-04,3.100652089000000160e+03
1.805413500000056944e-04,3.084715424999999868e+03
1.893941800000007543e-04,3.068218558999999914e+03
1.986698500000017042e-04,3.052045400999999856e+03
2.083813700000049956e-04,3.036759975999999824e+03
2.185562100000026974e-04,3.021921727999999803e+03
2.291987100000056842e-04,3.006603971999999885e+03
2.403420900000057361e-04,2.990415782000000036e+03
2.519977200000056406e-04,2.973968392000000222e+03
2.641920400000046182e-04,2.958279179999999997e+03
2.769223300000049994e-04,2.943499146000000110e+03
2.902274099999999860e-04,2.928870070999999825e+03
3.041225900000057601e-04,2.913464809000000059e+03
3.186383500000004930e-04,2.897398360000000139e+03
3.337814400000027495e-04,2.881371823999999833e+03
3.495850300000000643e-04,2.865960869000000002e+03
3.660639400000036386e-04,2.850991970000000038e+03
3.832434600000027324e-04,2.835872058999999808e+03
4.011309500000024143e-04,2.820257078999999976e+03
4.197561100000015907e-04,2.804098020999999790e+03
4.391364200000040866e-04,2.787101397999999790e+03
4.592927300000013450e-04,2.768488432000000103e+03
4.802425800000023181e-04,2.747893672000000151e+03
5.020040800000060907e-04,2.726401028000000224e+03
5.245973100000043098e-04,2.706157632999999805e+03
5.480371400000052119e-04,2.689070733999999902e+03
5.723513699999998455e-04,2.675942081000000144e+03
5.975503300000042884e-04,2.666125285999999960e+03
6.236552000000017805e-04,2.658060613000000103e+03
6.506720799999996061e-04,2.650413583999999901e+03
6.786341900000039109e-04,2.642456728000000112e+03
7.075402700000025993e-04,2.633868875000000116e+03
7.374163899999999208e-04,2.624640034999999898e+03
7.682654900000045108e-04,2.614702466000000186e+03
8.001376500000035013e-04,2.603801291000000219e+03
8.330222400000053236e-04,2.592089156999999886e+03
8.669457200000038870e-04,2.580515813999999864e+03
9.019036000000042307e-04,2.570303487000000132e+03
9.379442700000027331e-04,2.561621299999999792e+03
9.750550900000050153e-04,2.553277870999999777e+03
1.013269480000005256e-03,2.544028909000000112e+03
1.052588599999999906e-03,2.533972757000000001e+03
1.093084850000003785e-03,2.524330149999999776e+03
1.134736700000004914e-03,2.516189508999999816e+03
1.177574460000002524e-03,2.508723277000000053e+03
1.221590740000003377e-03,2.500951548999999886e+03
1.266842100000005250e-03,2.492124201999999968e+03
1.313313310000005247e-03,2.482897183999999925e+03
1.361041490000005098e-03,2.474497186999999940e+03
1.410027730000003050e-03,2.467247447000000193e+03
1.460346390000005117e-03,2.460250093000000106e+03
1.511979160000002714e-03,2.452638383999999860e+03
1.564962420000000527e-03,2.444619286999999986e+03
1.619295170000000818e-03,2.437278467000000092e+03
1.675039619999999820e-03,2.431280777999999827e+03
1.732187920000001144e-03,2.425907800999999836e+03
1.790783570000002061e-03,2.419921448000000055e+03
1.850836810000004154e-03,2.413035636000000068e+03
1.912433970000002254e-03,2.406177917999999863e+03
1.975560250000001072e-03,2.400415474999999788e+03
2.040256429999999423e-03,2.395648027000000184e+03
2.106527720000002726e-03,2.390619419999999991e+03
2.174440010000004871e-03,2.384331634000000122e+03
2.243992750000003717e-03,2.377053399999999783e+03
2.315233480000003594e-03,2.370011571000000004e+03
2.388178300000000018e-03,2.364216240000000198e+03
2.462908920000003894e-03,2.359392484999999851e+03
2.539424090000004172e-03,2.354369744999999966e+03
2.617771920000002903e-03,2.348620469999999841e+03
2.697969120000003138e-03,2.342995546999999988e+03
2.780086560000000987e-03,2.338821596000000227e+03
2.864135380000000508e-03,2.336263512999999875e+03
2.950170900000003565e-03,2.333699196999999913e+03
3.038220290000005243e-03,2.329128724000000147e+03
3.128377540000002507e-03,2.322305355999999847e+03
3.220647790000000839e-03,2.315043255999999928e+03
3.315085910000000434e-03,2.309705575999999837e+03
3.411716310000002632e-03,2.306836435000000165e+03
3.510616500000004764e-03,2.304792446999999811e+03
3.611806370000003683e-03,2.301349718999999823e+03
3.715348300000002098e-03,2.295981444999999894e+03
3.821277260000002091e-03,2.290202979000000141e+03
3.929687200000003822e-03,2.285908037000000149e+03
4.040597890000000719e-03,2.283422704000000067e+03
4.154074340000001031e-03,2.281077014999999847e+03
4.270153159999999851e-03,2.276904086000000007e+03
4.388921129999999969e-03,2.270814901000000191e+03
4.510410320000005080e-03,2.264854788999999982e+03
4.634694330000002117e-03,2.261261641000000054e+03
4.761820400000004415e-03,2.260223824000000150e+03
4.891900460000001873e-03,2.259478568999999879e+03
5.024960950000000731e-03,2.256365816999999879e+03
5.161077490000004139e-03,2.250468992000000071e+03
5.300295830000002761e-03,2.244119972999999845e+03
5.442715280000001363e-03,2.240238385999999991e+03
5.588377520000001666e-03,2.239555377000000135e+03
5.737367960000000662e-03,2.239795612999999776e+03
5.889743980000005860e-03,2.237739912999999888e+03
6.045625300000004657e-03,2.232314781999999923e+03
6.205054020000005770e-03,2.225670371000000159e+03
6.368120620000005880e-03,2.221208702999999787e+03
6.534884460000000249e-03,2.220416752000000088e+03
6.705460920000000553e-03,2.221394443000000138e+03
6.879904310000000550e-03,2.220553487000000132e+03
7.058316380000000459e-03,2.215996162999999797e+03
7.240768559999999354e-03,2.209319238999999925e+03
7.427407700000003728e-03,2.204152042000000165e+03
7.618280980000001132e-03,2.202824950000000172e+03
7.813494330000005442e-03,2.204146377000000030e+03
8.013118590000005079e-03,2.204457344999999805e+03
8.217288590000003390e-03,2.201032114000000092e+03
8.426070550000006390e-03,2.194631573000000117e+03
8.639583620000003752e-03,2.188799766000000091e+03
8.857913570000000569e-03,2.186624401999999918e+03
9.081222020000005030e-03,2.187860733999999866e+03
9.309574490000003394e-03,2.189100808000000143e+03
9.543098680000000611e-03,2.186936924999999974e+03
9.781885490000001224e-03,2.181130020000000059e+03
1.002609389000000580e-02,2.174848332999999911e+03
1.027580518000000692e-02,2.171796816000000035e+03
1.053116173000000037e-02,2.172751459000000068e+03
1.079226739999999962e-02,2.174739533999999821e+03
1.105932282000000530e-02,2.173800174999999854e+03
1.133239861000000584e-02,2.168711022999999841e+03
1.161164373000000451e-02,2.162164609999999811e+03
1.189716397000000099e-02,2.158347917000000052e+03
1.218914514000000136e-02,2.159016106000000036e+03
1.248768675000000092e-02,2.161712230000000091e+03
1.279295644000000461e-02,2.162026472999999896e+03
1.310508054000000290e-02,2.157738478000000214e+03
1.342428386999999605e-02,2.150898455000000013e+03
1.375065978999999959e-02,2.146029343000000154e+03
1.408438565000000135e-02,2.145930910000000040e+03
1.442559228999999721e-02,2.148920705999999882e+03
1.477449585000000822e-02,2.150374088000000029e+03
1.513121883000000806e-02,2.147090035000000171e+03
1.549595822999999886e-02,2.140284478000000036e+03
1.586886735999999687e-02,2.134545736000000034e+03
1.625021854000000682e-02,2.133605880000000070e+03
1.664012116000000707e-02,2.136685801000000083e+03
1.703878595000000301e-02,2.139179000999999971e+03
1.744636752000000915e-02,2.137026502000000164e+03
1.786311706000000624e-02,2.130531856000000062e+03
1.828918221000000802e-02,2.124137640999999803e+03
1.872479094000000649e-02,2.122342529999999897e+03
1.917012784999999955e-02,2.125343457999999828e+03
1.962548666000000705e-02,2.128792098999999780e+03
2.009101981000000620e-02,2.127993958000000021e+03
2.056697570000000017e-02,2.122356390999999803e+03
2.105354715000000085e-02,2.116014029999999821e+03
2.155101953000000334e-02,2.114054692000000159e+03
2.205957962000000896e-02,2.117596916999999848e+03
2.257949353000000825e-02,2.122606890999999905e+03
2.311098796999999649e-02,2.123833109000000150e+03
2.365441968000000367e-02,2.119848136000000068e+03
2.420995978999999909e-02,2.114448156999999810e+03
2.477788979999999766e-02,2.113070999000000029e+03
2.535844570999999659e-02,2.117539775000000191e+03
2.595194933000000495e-02,2.124064852999999857e+03
2.655863858000000882e-02,2.126867303999999876e+03
2.717883466999999886e-02,2.123794062999999824e+03
2.781280227999999993e-02,2.118582742000000053e+03
2.846090352000000059e-02,2.117422744999999850e+03
2.912338139999999867e-02,2.122842103999999836e+03
2.980056301999999685e-02,2.130780305000000226e+03
3.049275366999999737e-02,2.134420759999999973e+03
3.120032342000000208e-02,2.130929552999999942e+03
3.192355756000000294e-02,2.124138500000000022e+03
3.266280461999999940e-02,2.120803127000000131e+03
3.341839851000000250e-02,2.124045721999999842e+03
3.419076881000000789e-02,2.130426144000000022e+03
3.498021110000000544e-02,2.133877170000000206e+03
3.578709523000000309e-02,2.132004393000000164e+03
3.661178068000001118e-02,2.128151382999999896e+03
3.745469097000000275e-02,2.127623955999999907e+03
3.831618715000000702e-02,2.131916990000000169e+03
3.919666522000000292e-02,2.136980703000000176e+03
4.009652327000000349e-02,2.137775195000000167e+03
4.101621830000000413e-02,2.133614407000000028e+03
4.195614254000000487e-02,2.129034909999999854e+03
4.291671856000000423e-02,2.129203419999999824e+03
4.389838686999999323e-02,2.134308554000000186e+03
4.490162422999999930e-02,2.138922312000000147e+03
4.592686170000000179e-02,2.137781641000000036e+03
4.697455815999999895e-02,2.131452588999999989e+03
4.804521209999999820e-02,2.125722569000000021e+03
4.913928219000000125e-02,2.126049249000000145e+03
5.025726960000000132e-02,2.131397238999999900e+03
5.139970200000000544e-02,2.135421753999999964e+03
5.256707730000000772e-02,2.133238734999999906e+03
5.375989099999999715e-02,2.126398204000000078e+03
5.497871969999999775e-02,2.121125770999999986e+03
5.622408160000000321e-02,2.121788889999999810e+03
5.749653450000000859e-02,2.126039947000000211e+03
5.879663580000000361e-02,2.127777660000000196e+03
6.012496700000000138e-02,2.123904711000000134e+03
6.148211940000000014e-02,2.117523740999999973e+03
6.286869790000000624e-02,2.114636328999999932e+03
6.428527159999999907e-02,2.117247354999999970e+03
6.573249350000000268e-02,2.121050898999999845e+03
6.721098109999999737e-02,2.120330419999999776e+03
6.872138669999999783e-02,2.114396041999999852e+03
7.026429239999999743e-02,2.108417770999999902e+03
7.184043390000001417e-02,2.107855093000000124e+03
7.345047520000000385e-02,2.112320145000000139e+03
7.509511750000000263e-02,2.115942489999999907e+03
7.677502730000000664e-02,2.114028584000000137e+03
7.849095050000001739e-02,2.107934451999999965e+03
8.024359909999999318e-02,2.103529669000000013e+03
8.203372170000002017e-02,2.104456493000000137e+03
8.386201179999999700e-02,2.108082398000000012e+03
8.572928720000000391e-02,2.108544202999999925e+03
8.763631180000000520e-02,2.103669905000000199e+03
8.958388359999999717e-02,2.097494330999999875e+03
9.157277580000000583e-02,2.096053815000000213e+03
9.360382800000001391e-02,2.100579173000000083e+03
9.567785780000001572e-02,2.105859192999999777e+03
9.779571159999998764e-02,2.105962468000000172e+03
9.995819770000001492e-02,2.100411887000000206e+03
1.021662257000000018e-01,2.094461980000000040e+03
1.044206703999999986e-01,2.093489716000000044e+03
1.067224264999999950e-01,2.097281425000000127e+03
1.090723933000000007e-01,2.100367745999999897e+03
1.114714948000000011e-01,2.098236969999999928e+03
1.139206643000000158e-01,2.092125414999999975e+03
1.164208439999999956e-01,2.087934341000000131e+03
1.189730038999999989e-01,2.089883131000000049e+03
1.215781041000000007e-01,2.095793036999999913e+03
1.242371373000000084e-01,2.099266977000000225e+03
1.269510912000000047e-01,2.096136015999999927e+03
1.297210048000000115e-01,2.088670774000000165e+03
1.325478737000000129e-01,2.083683739000000060e+03
1.354327516000000120e-01,2.085779590000000098e+03
1.383766706999999818e-01,2.092684063000000151e+03
1.413807919000000246e-01,2.097536391000000094e+03
1.444460927000000006e-01,2.095404070999999931e+03
1.475736850000000100e-01,2.087726986000000124e+03
1.507646397999999888e-01,2.081168140000000221e+03
1.540201417000000017e-01,2.081402501000000029e+03
1.573412409000000123e-01,2.087977989999999863e+03
1.607291070000000099e-01,2.094566216000000168e+03
1.641848511000000010e-01,2.094927673000000141e+03
1.677097901999999863e-01,2.088280460999999832e+03
1.713049338999999838e-01,2.079991665999999896e+03
1.749715037000000306e-01,2.077247695000000022e+03
1.787106415000000170e-01,2.082652862999999797e+03
1.825236697000000297e-01,2.091472095999999965e+03
1.864116721999999893e-01,2.096258725000000140e+03
1.903759220000000030e-01,2.092734381000000212e+03
1.944175890999999823e-01,2.083196281999999883e+03
1.985382258000000233e-01,2.074963976000000002e+03
2.027387562000000087e-01,2.074388605999999982e+03
2.070204921000000087e-01,2.081854206999999860e+03
2.113846173999999745e-01,2.091351649000000180e+03
2.158325714000000062e-01,2.095678978999999799e+03
2.203654406999999704e-01,2.091485404000000017e+03
2.249845713999999997e-01,2.081528569999999945e+03
2.296911615999999989e-01,2.072962309999999889e+03
2.344868331999999667e-01,2.072035781999999926e+03
2.393725231999999925e-01,2.079520066000000043e+03
2.443495968999999934e-01,2.090361719999999877e+03
2.494192473999999604e-01,2.097463976000000002e+03
2.545829906999999559e-01,2.096371760999999879e+03
2.598418749999999999e-01,2.087702926999999818e+03
2.651972786999999832e-01,2.076678555999999844e+03
2.706503818000000061e-01,2.070480066999999963e+03
2.762030199000000130e-01,2.073356897000000117e+03
2.818559018999999832e-01,2.083633131999999932e+03
2.876103951000000269e-01,2.095049633000000085e+03
2.934676415999999954e-01,2.101133506000000125e+03
2.994291775999999849e-01,2.098658929000000171e+03
3.054959525000000009e-01,2.089044070999999803e+03
3.116693110000000044e-01,2.077632733999999800e+03
3.179503517999999751e-01,2.070885154999999941e+03
3.243408092999999770e-01,2.072949220999999852e+03
3.308413418000000217e-01,2.082777155000000221e+03
3.374532452999999821e-01,2.094964088000000174e+03
3.441775442000000185e-01,2.103167669999999816e+03
3.510157157000000083e-01,2.103531507000000147e+03
3.579685350999999849e-01,2.096003190999999788e+03
