x, pressure
5.079999999999999793e-02,0.000000000000000000e+00
5.080000227999999923e-02,1.238557191000000043e-04
5.080000635999999681e-02,4.951038596000000057e-04
5.080001287000000115e-02,1.469909991000000089e-03
5.080002247000000443e-02,3.584095148000000092e-03
5.080003480999999849e-02,7.356775567999999758e-03
5.080005006999999823e-02,8.831512112999999678e-03
5.080006909000000376e-02,1.401045040000000082e-02
5.080009148999999752e-02,2.967223993000000018e-02
5.080011748999999771e-02,6.060036531000000115e-02
5.080014812999999324e-02,1.129788924999999972e-01
5.080018294000000073e-02,1.988585220999999903e-01
5.080022219000000089e-02,3.437536766000000021e-01
5.080026716999999636e-02,5.899181315999999509e-01
5.080031727999999996e-02,8.554822933000000296e-01
5.080037286999999901e-02,1.317459109999999933e+00
5.080043550999999852e-02,1.840174941999999980e+00
5.080050445999999970e-02,2.413369884999999826e+00
5.080058012000000095e-02,2.811720261000000054e+00
5.080066443999999709e-02,3.407774195000000006e+00
5.080075648999999444e-02,3.850424214999999872e+00
5.080085675999999884e-02,4.477539168999999930e+00
5.080096760999999739e-02,5.070890588000000143e+00
5.080108791000000068e-02,5.694764057000000435e+00
5.080121824999999508e-02,6.035660254999999808e+00
5.080136148999999518e-02,6.830238254000000175e+00
5.080151624999999782e-02,7.690280491000000218e+00
5.080168322999999847e-02,9.065431787999999713e+00
5.080186590999999363e-02,9.606752373000000844e+00
5.080206259999999613e-02,1.073331235000000028e+01
5.080227413999999914e-02,1.164164601000000054e+01
5.080250473000000322e-02,1.293819977999999971e+01
5.080275232999999918e-02,1.469608479999999950e+01
5.080301792999999955e-02,1.704916861999999966e+01
5.080330663000000302e-02,2.195086365999999956e+01
5.080361591999999621e-02,3.241221397999999709e+01
5.080394701000000290e-02,4.587627788000000351e+01
5.080430602999999601e-02,6.826037091999999973e+01
5.080468994999999544e-02,1.032055555000000027e+02
5.080510024000000485e-02,1.582757827000000077e+02
5.080554430999999899e-02,2.429456132999999909e+02
5.080601846999999865e-02,3.696105612000000065e+02
5.080652446999999600e-02,5.541048869999999624e+02
5.080707123000000047e-02,8.118063809999999876e+02
5.080765430999999860e-02,1.148877797000000101e+03
5.080827580999999760e-02,1.534689345999999887e+03
5.080894651000000123e-02,1.900285448000000088e+03
5.080966099999999902e-02,2.205014454000000114e+03
5.081042179999999825e-02,2.443809795000000122e+03
5.081124179999999685e-02,2.626964762999999948e+03
5.081211456999999709e-02,2.766914385999999922e+03
5.081304318000000320e-02,2.874202369999999974e+03
5.081404325999999694e-02,2.958168183000000226e+03
5.081510698999999742e-02,3.026587081000000126e+03
5.081623803000000217e-02,3.085737316000000192e+03
5.081745507000000328e-02,3.138795588999999836e+03
5.081874878999999984e-02,3.184717732000000069e+03
5.082012366000000086e-02,3.221631770999999844e+03
5.082160225000000031e-02,3.250823957999999948e+03
5.082317324000000525e-02,3.275785734999999931e+03
5.082484185999999737e-02,3.299424114999999802e+03
5.082663504999999915e-02,3.322202530999999908e+03
5.082853948999999788e-02,3.341156176999999843e+03
5.083056177999999842e-02,3.352648126999999931e+03
5.083273475999999791e-02,3.357303405999999995e+03
5.083504221000000045e-02,3.359231838000000153e+03
5.083749187000000114e-02,3.362384306999999808e+03
5.084012283000000076e-02,3.368186736999999994e+03
5.084291595999999858e-02,3.373226483999999800e+03
5.084588091999999587e-02,3.371609692999999879e+03
5.084906516000000515e-02,3.361912789999999859e+03
5.085244525000000293e-02,3.348490903999999773e+03
5.085603218999999731e-02,3.337484158000000207e+03
5.085988182000000107e-02,3.332890992000000097e+03
5.086396735999999807e-02,3.332338886000000002e+03
5.086830338000000035e-02,3.327367373000000043e+03
5.087295892000000264e-02,3.312375478999999814e+03
5.087790085000000462e-02,3.289306091999999808e+03
5.088314567999999843e-02,3.266353611000000001e+03
5.088877431000000257e-02,3.251117517000000134e+03
5.089474835999999863e-02,3.246439641999999822e+03
5.090108907999999627e-02,3.245165879000000132e+03
5.090789530999999951e-02,3.235028366999999889e+03
5.091511893999999677e-02,3.209991610999999921e+03
5.092278256000000447e-02,3.176557303999999931e+03
5.093099816000000446e-02,3.146036939999999959e+03
5.093971248999999701e-02,3.127390040000000226e+03
5.094895686000000534e-02,3.123292273000000023e+03
5.095887174000000158e-02,3.126667068000000199e+03
5.096938907999999657e-02,3.118593667999999980e+03
5.098054135000000542e-02,3.086005739000000176e+03
5.099248606999999545e-02,3.042900500000000193e+03
5.100514419000000410e-02,3.004414231000000200e+03
5.101855621000000313e-02,2.979221109999999953e+03
5.103291316999999938e-02,2.972366860000000088e+03
5.104811251000000022e-02,2.981773966000000200e+03
5.106419204000000461e-02,2.987866970999999921e+03
5.108135735999999594e-02,2.965911783999999898e+03
5.109949086000000612e-02,2.920045121999999992e+03
5.111863834999999523e-02,2.866930667999999969e+03
5.113904930000000293e-02,2.828772476999999981e+03
5.116057096999999942e-02,2.809045821000000160e+03
5.118324345999999969e-02,2.811261642999999822e+03
5.120733933999999793e-02,2.829839767999999822e+03
5.123267631000000266e-02,2.836571879999999965e+03
5.125929272999999592e-02,2.813554614000000129e+03
5.128749641000000109e-02,2.767877151000000140e+03
5.131706622999999967e-02,2.719664585999999872e+03
5.134803714000000380e-02,2.681036751999999979e+03
5.138075101999999700e-02,2.656921157000000221e+03
5.141495358000000571e-02,2.653803222000000005e+03
5.145067207999999559e-02,2.668559094000000186e+03
5.148826955000000011e-02,2.680491872999999941e+03
5.152745767999999948e-02,2.671741692000000057e+03
5.156826549000000093e-02,2.643798910999999862e+03
5.161109917999999464e-02,2.609294005000000197e+03
5.165563790000000238e-02,2.577227508999999827e+03
5.170190360000000152e-02,2.550453997000000072e+03
5.175031453999999476e-02,2.530230587000000014e+03
5.180053134999999809e-02,2.520340592999999899e+03
5.185258859999999914e-02,2.519185912999999800e+03
5.190696880000000152e-02,2.519568020000000161e+03
5.196329520999999618e-02,2.516627775999999812e+03
5.202159073999999828e-02,2.508320384999999987e+03
5.208233251000000258e-02,2.493582934999999907e+03
5.214513209999999815e-02,2.475021753999999873e+03
5.221002772999999708e-02,2.457110418000000209e+03
5.227755732000000100e-02,2.442083646000000044e+03
5.234730132999999841e-02,2.430230124000000160e+03
5.241929516999999789e-02,2.421452153000000180e+03
5.249408905999999875e-02,2.415584066999999777e+03
5.257125168000000015e-02,2.411579134999999951e+03
5.265083681000000404e-02,2.407696745000000192e+03
5.273347605999999937e-02,2.402911011000000144e+03
5.281869103999999732e-02,2.397069801999999981e+03
5.290652771999999893e-02,2.389384331000000202e+03
5.299762426000000082e-02,2.379817233000000215e+03
5.309148656999999882e-02,2.369911081000000195e+03
5.318817829999999969e-02,2.360385484999999790e+03
5.328841397000000368e-02,2.351913497000000007e+03
5.339165597000000013e-02,2.345023816999999781e+03
5.349796912000000237e-02,2.338978565999999773e+03
5.360810283999999787e-02,2.333027304000000186e+03
5.372149239000000021e-02,2.326107321999999840e+03
5.383822029000000231e-02,2.318543728999999985e+03
5.395913429000000205e-02,2.312319564999999784e+03
5.408360653999999546e-02,2.307962848000000122e+03
5.421171630999999796e-02,2.304111833999999817e+03
5.434434645999999813e-02,2.299353946000000178e+03
5.448083431999999754e-02,2.293453923000000032e+03
5.462127725999999656e-02,2.286891892000000098e+03
5.476665743000000419e-02,2.280048122000000149e+03
5.491624886000000261e-02,2.273466317999999774e+03
5.507015315999999605e-02,2.267604760000000169e+03
5.522941752999999815e-02,2.262121337000000040e+03
5.539326633000000305e-02,2.256283182000000124e+03
5.556182040000000322e-02,2.249757173999999850e+03
5.573625394999999483e-02,2.242528695999999854e+03
5.591570531000000094e-02,2.235107336999999916e+03
5.610029583000000070e-02,2.228439639000000170e+03
5.629126935999999998e-02,2.222520417000000180e+03
5.648770447999999778e-02,2.216869220000000041e+03
5.668974398000000553e-02,2.210863030999999864e+03
5.689876819999999807e-02,2.203654446000000007e+03
5.711376508000000352e-02,2.195042818999999781e+03
5.733488445999999905e-02,2.186266870999999810e+03
5.756360871999999934e-02,2.179037934999999834e+03
5.779884569000000305e-02,2.174304971999999907e+03
5.804076855999999729e-02,2.172436239999999998e+03
5.829103212999999645e-02,2.173159019000000171e+03
5.854842321000000571e-02,2.175155256999999892e+03
5.881311859000000475e-02,2.176151499999999942e+03
5.908688257999999971e-02,2.174557867999999871e+03
5.936841259999999648e-02,2.169407839999999851e+03
5.965791356999999850e-02,2.160933395999999902e+03
5.995733950999999895e-02,2.150652184000000034e+03
6.026525727999999804e-02,2.140915049000000181e+03
6.058188549000000089e-02,2.133776075000000219e+03
6.090933098000000240e-02,2.130202454000000216e+03
6.124604287999999702e-02,2.129902606000000105e+03
6.159226739999999756e-02,2.132006081999999878e+03
6.195034807999999504e-02,2.135306848000000173e+03
6.231856202000000261e-02,2.138606819000000087e+03
6.269716396999999719e-02,2.141104021999999986e+03
6.308865901000000609e-02,2.141890143000000080e+03
6.349119987000000076e-02,2.140270036999999775e+03
6.390508054000000604e-02,2.136692712000000029e+03
6.433307584000000356e-02,2.133063141999999971e+03
6.477314370000000765e-02,2.131490209000000050e+03
6.522559228999999514e-02,2.132993331000000126e+03
6.569340350999999800e-02,2.137066768000000138e+03
6.617437842999999986e-02,2.141907897999999932e+03
6.666886735999999480e-02,2.145615732000000207e+03
6.718018607999999559e-02,2.146674308000000110e+03
6.770589769000000258e-02,2.144088788999999906e+03
6.824636752000000361e-02,2.137728697999999895e+03
6.880513877999999695e-02,2.129128546999999799e+03
6.937958802999999453e-02,2.121084918000000016e+03
6.997012784999999402e-02,2.116144146999999975e+03
7.058066438000000498e-02,2.115446468000000095e+03
7.120832373999999576e-02,2.118157704000000194e+03
7.185354715000000225e-02,2.122173080000000027e+03
7.252053955999999968e-02,2.125057204000000183e+03
7.320618889000000962e-02,2.124759207999999944e+03
7.391098796999999443e-02,2.120251799000000119e+03
7.463959972000000498e-02,2.112310187999999926e+03
7.538857980000000791e-02,2.103774053000000094e+03
7.615844570999999452e-02,2.098249762999999803e+03
7.695417908000000418e-02,2.098086244999999963e+03
7.777210263999999318e-02,2.103024644999999964e+03
7.861280227999999093e-02,2.110507548999999926e+03
7.948172947999999904e-02,2.117008295000000089e+03
8.037483580999998933e-02,2.119530939000000217e+03
8.129275366999999530e-02,2.117071331000000100e+03
8.224140147000000289e-02,2.111383244000000104e+03
8.321638892999999593e-02,2.106200652999999875e+03
8.421839851000000043e-02,2.105329412000000048e+03
8.525391623999999113e-02,2.110155622000000221e+03
8.631813384999999228e-02,2.118956311999999798e+03
8.741178068000000911e-02,2.128004999000000225e+03
8.854185635999999027e-02,2.133442273999999998e+03
8.970317252999999991e-02,2.133126914999999826e+03
9.089652327000000143e-02,2.127884269000000131e+03
9.212952638000000694e-02,2.121530424999999923e+03
9.339652654999999748e-02,2.118673221000000012e+03
9.469838686999999811e-02,2.121594650000000001e+03
9.604337005999999399e-02,2.129208223000000089e+03
9.742532599999999265e-02,2.136940528000000086e+03
9.884521209999999614e-02,2.139847432999999910e+03
1.003119447000000025e-01,2.135619399000000158e+03
1.018188911999999974e-01,2.126104275000000143e+03
1.033670772999999987e-01,2.116832952000000205e+03
1.049661672000000018e-01,2.113624330000000100e+03
1.066089609999999882e-01,2.117982932999999775e+03
1.082965345000000135e-01,2.126323762999999872e+03
1.100394129000000082e-01,2.132569483000000218e+03
1.118297352999999966e-01,2.132188775999999962e+03
1.136686979000000042e-01,2.124488331999999900e+03
1.155676788999999982e-01,2.113411853999999948e+03
1.175181519000000063e-01,2.105750219999999899e+03
1.195213866999999958e-01,2.105788661000000047e+03
1.215896729000000009e-01,2.112272577000000183e+03
1.237137947999999987e-01,2.119479437999999845e+03
1.258951174999999867e-01,2.121594669999999951e+03
1.281470017000000128e-01,2.116082886000000144e+03
1.304593829000000038e-01,2.105799160000000029e+03
1.328337217000000181e-01,2.097425623999999971e+03
1.352844368999999991e-01,2.096130787000000055e+03
1.378006370000000036e-01,2.101677044000000024e+03
1.403838835999999812e-01,2.108622551999999814e+03
1.430497931999999972e-01,2.110705520999999862e+03
1.457865145000000195e-01,2.105189221999999972e+03
1.485957115999999856e-01,2.095058008999999856e+03
1.514942069999999918e-01,2.087235911000000215e+03
1.544691888000000179e-01,2.087194890000000214e+03
1.575224265000000068e-01,2.094516677000000072e+03
1.606720937999999987e-01,2.103126051000000189e+03
1.639042743999999940e-01,2.106344631999999820e+03
1.672208440000000074e-01,2.101088374999999814e+03
1.706413707000000168e-01,2.090181465000000117e+03
1.741507928999999899e-01,2.080914979000000130e+03
1.777510911999999887e-01,2.079549914000000172e+03
1.814632944999999831e-01,2.086773340000000189e+03
1.852711257000000111e-01,2.096812355000000025e+03
1.891766706999999936e-01,2.102322314999999890e+03
1.932025587999999794e-01,2.098813192999999956e+03
1.973311541999999974e-01,2.087806721999999809e+03
2.015646398000000006e-01,2.076134575999999925e+03
2.059271748000000013e-01,2.071557961999999861e+03
2.103998182999999855e-01,2.077116481999999905e+03
2.149848510999999851e-01,2.088772069999999985e+03
2.197081713999999852e-01,2.098513574999999946e+03
2.245493137999999833e-01,2.100263578999999936e+03
2.295106415000000011e-01,2.092759439999999813e+03
2.346196705000000160e-01,2.079999612999999954e+03
2.398545054000000010e-01,2.069550545000000056e+03
2.452175890999999941e-01,2.067958571000000120e+03
2.507384026000000210e-01,2.076394834000000174e+03
2.563932467999999743e-01,2.089644780000000083e+03
2.621846173999999863e-01,2.099872272999999950e+03
2.681435278000000033e-01,2.101565733999999793e+03
2.742448612000000230e-01,2.093941859999999906e+03
2.804911615999999830e-01,2.080827318000000105e+03
2.869153964999999751e-01,2.069073510000000169e+03
2.934905722999999744e-01,2.065117197000000033e+03
3.002192473999999445e-01,2.071431222000000162e+03
3.071359520999999981e-01,2.084809275999999954e+03
3.142121441999999876e-01,2.097935884999999871e+03
3.214503818000000179e-01,2.104260455999999976e+03
3.288873138999999779e-01,2.101277352000000064e+03
3.364922307000000057e-01,2.090874342999999953e+03
3.442676416000000073e-01,2.077660687000000053e+03
3.522514358999999651e-01,2.067445939000000180e+03
3.604115247999999938e-01,2.064906501999999819e+03
3.687503517999999869e-01,2.071535296000000017e+03
3.773076535000000065e-01,2.084652887000000192e+03
3.860492775000000099e-01,2.098448310000000220e+03
3.949775442000000303e-01,2.106973245000000134e+03
4.041333222000000336e-01,2.107040076000000226e+03
4.134810019999999864e-01,2.099228451999999834e+03
4.230227510000000302e-01,2.086748995999999806e+03
4.328012759999999570e-01,2.074172137999999904e+03
4.427786960999999799e-01,2.065737521000000015e+03
4.529569536999999979e-01,2.064423021999999946e+03
4.633792316000000522e-01,2.071238911999999800e+03
4.740066058999999887e-01,2.084068913000000066e+03
4.848407618000000197e-01,2.098377172999999857e+03
4.959260856999999634e-01,2.108991410000000087e+03
5.072217658000000018e-01,2.112325158000000101e+03
5.187291555000000942e-01,2.107670489000000089e+03
5.304927770999999792e-01,2.097288931000000048e+03
5.424708540999999551e-01,2.084976884000000155e+03
5.546643649999999370e-01,2.073826825999999983e+03
5.671187498999999965e-01,2.065598133999999845e+03
5.797903495999999768e-01,2.061505673999999999e+03
5.926796852999999254e-01,2.062860193999999865e+03
6.058313003999999946e-01,2.070404602999999952e+03
6.192013170000000288e-01,2.083068255000000136e+03
6.327897633000000299e-01,2.097614105999999992e+03
6.466410620000000442e-01,2.109664024000000154e+03
6.607102196999999899e-01,2.115679611999999906e+03
6.749966978000000450e-01,2.114247773999999936e+03
6.895434420999999592e-01,2.106217788999999811e+03
7.043055681000000012e-01,2.093962708000000021e+03
7.192819371000001016e-01,2.079901542999999947e+03
7.345147972000000136e-01,2.066097870999999941e+03
7.499584876000000566e-01,2.054134559999999965e+03
7.656112043999999672e-01,2.045348179999999957e+03
7.815124289000000557e-01,2.041015036000000009e+03
7.976176957999999706e-01,2.042077322999999978e+03
8.139245269000000560e-01,2.049039896000000226e+03
8.304704015999999633e-01,2.061069880999999896e+03
8.472112368999999976e-01,2.075794472000000042e+03
8.641438432999999364e-01,2.090108808999999837e+03
8.813022750000000238e-01,2.101059651999999915e+03
8.986442193999999439e-01,2.106705058000000008e+03
9.161657872999999785e-01,2.106675545000000056e+03
9.338983266999999477e-01,2.101958439999999882e+03
9.518005864000000926e-01,2.094493507000000136e+03
9.698679691999999575e-01,2.086094866999999795e+03
9.881271986000000895e-01,2.078057714000000033e+03
1.006540044999999939e+00,2.071093401000000085e+03
1.025101253000000101e+00,2.065479174999999941e+03
1.043833638000000175e+00,2.061206678000000011e+03
1.062701377000000003e+00,2.058156178000000182e+03
1.081698591999999959e+00,2.056271550999999818e+03
1.100843057000000069e+00,2.055724185000000034e+03
1.120102617999999994e+00,2.056883327000000008e+03
1.139470849999999924e+00,2.060218671000000086e+03
1.158961117999999901e+00,2.065954499999999825e+03
1.178544480999999866e+00,2.073794115000000147e+03
1.198214037000000065e+00,2.082881569000000127e+03
1.217977467999999952e+00,2.091948953000000074e+03
1.237810529999999964e+00,2.099579917000000023e+03
1.257705958999999929e+00,2.104633381000000099e+03
1.277666377999999936e+00,2.106489555000000109e+03
1.297671867999999895e+00,2.105059088999999858e+03
1.317714897999999968e+00,2.100935230999999931e+03
1.337792542999999945e+00,2.095057165000000168e+03
1.357889963999999949e+00,2.088425757999999860e+03
1.377999497000000018e+00,2.081896541000000070e+03
1.398113155999999968e+00,2.076033205000000180e+03
1.418220982000000019e+00,2.071078699000000142e+03
1.438315290999999885e+00,2.066994066000000203e+03
1.458382732000000015e+00,2.063583114000000023e+03
1.478418818000000190e+00,2.060636633999999958e+03
1.498415981000000174e+00,2.058031783999999789e+03
1.518355966999999973e+00,2.055753170999999838e+03
1.538239591999999822e+00,2.053854224000000158e+03
1.558059514999999839e+00,2.052393523000000187e+03
1.577792823000000011e+00,2.051399477999999817e+03
1.597445664999999959e+00,2.050878435999999965e+03
1.617011044999999925e+00,2.050854311000000052e+03
1.636461661000000012e+00,2.051387760000000071e+03
1.655808975000000016e+00,2.052606471999999940e+03
1.675046440000000025e+00,2.054618906000000152e+03
1.694143004000000063e+00,2.057542350000000170e+03
1.713115026999999957e+00,2.061390868999999839e+03
1.731956492000000125e+00,2.066078911999999946e+03
1.750632775000000141e+00,2.071419022000000041e+03
1.769165139000000053e+00,2.077150692000000163e+03
1.787548174000000101e+00,2.082952444999999898e+03
1.805744490000000146e+00,2.088489848000000165e+03
1.823779593000000032e+00,2.093470287999999982e+03
1.841648723999999904e+00,2.097633385000000089e+03
1.859311662000000087e+00,2.100789631999999983e+03
1.876798320999999881e+00,2.102856867999999849e+03
1.894104642000000061e+00,2.103777908000000025e+03
1.911188867999999985e+00,2.103602324999999837e+03
1.928084085000000059e+00,2.102445767000000160e+03
1.944786938000000021e+00,2.100451566000000184e+03
1.961253907000000130e+00,2.097788313999999900e+03
1.977521494999999963e+00,2.094646212999999989e+03
1.993587055999999968e+00,2.091223135000000184e+03
2.009406397999999871e+00,2.087686722999999802e+03
2.025018328999999895e+00,2.084163466999999855e+03
2.040420886999999794e+00,2.080759470999999849e+03
2.055568737999999840e+00,2.077562276999999995e+03
2.070503413999999598e+00,2.074629801000000043e+03
