x, pressure
0.000000000000000000e+00,0.000000000000000000e+00
2.280000003906934491e-09,1.291423489999999924e-04
6.360000000427134933e-09,5.088748728999999832e-04
1.287000000615989865e-08,1.507848112999999983e-03
2.247000000465959644e-08,3.670903134999999994e-03
3.481000000249423280e-08,7.512360362000000333e-03
5.007000000034622904e-08,8.831512112999999678e-03
6.909000000376864010e-08,1.437711197999999926e-02
9.149000000263641057e-08,3.047863307000000035e-02
1.174900000009415584e-07,6.220184742999999850e-02
1.481299999994689536e-07,1.158871125999999946e-01
1.829400000019632063e-07,2.038363233000000108e-01
2.221900000023424495e-07,3.520175822000000121e-01
2.671700000007604002e-07,6.036017492999999901e-01
3.172800000044162639e-07,8.743952383999999967e-01
3.728699999996365465e-07,1.344976095999999899e+00
4.355100000026368269e-07,1.876922865000000051e+00
5.044600000019272701e-07,2.459181442999999856e+00
5.801200000021822573e-07,2.862645570000000195e+00
6.644400000013206163e-07,3.461701264999999861e+00
7.564900000005536615e-07,3.902593487999999944e+00
8.567600000048969657e-07,4.536295197000000279e+00
9.676100000035604172e-07,5.136574187999999985e+00
1.087910000002523158e-06,5.764117737000000297e+00
1.218250000000864549e-06,6.104656473000000361e+00
1.361490000000742369e-06,6.901435656000000307e+00
1.516250000001662185e-06,7.775259091999999761e+00
1.683230000004698510e-06,9.161605919999999514e+00
1.865909999999360130e-06,9.697820548999999346e+00
2.062600000002134900e-06,1.084567846999999929e+01
2.274140000004365403e-06,1.174271530000000041e+01
2.504730000005395080e-06,1.302084153000000022e+01
2.752329999999858416e-06,1.477149344000000042e+01
3.017930000005719510e-06,1.717052393000000166e+01
3.306630000004417922e-06,2.217542691999999960e+01
3.615920000001437940e-06,3.260941522000000248e+01
3.947010000004525198e-06,4.610234524999999906e+01
4.306030000002181453e-06,6.858992168999999706e+01
4.689949999999498436e-06,1.036988608000000056e+02
5.100240000004419118e-06,1.590120780000000025e+02
5.544310000004770774e-06,2.440250538999999890e+02
6.018470000000775537e-06,3.711581125000000156e+02
6.524470000002224709e-06,5.562595036000000164e+02
7.071230000001094086e-06,8.146643728999999894e+02
7.654309999999498121e-06,1.152350523000000067e+03
8.275810000000660991e-06,1.538288559000000078e+03
8.946510000001240564e-06,1.903554699999999912e+03
9.661000000001251404e-06,2.207855262999999923e+03
1.042180000000314493e-05,2.446310688999999911e+03
1.124180000000052314e-05,2.629265730000000076e+03
1.211457000000137943e-05,2.769143222000000151e+03
1.304318000000392959e-05,2.876435011999999915e+03
1.404326000000111176e-05,2.960423181999999997e+03
1.510698999999959903e-05,3.028852296999999908e+03
1.623803000000378940e-05,3.088018848000000162e+03
1.745507000000401450e-05,3.141134872999999970e+03
1.874879000000362372e-05,3.187156120999999985e+03
2.012366000000298397e-05,3.224168201999999837e+03
2.160225000000082134e-05,3.253406284000000142e+03
2.317324000000553594e-05,3.278345604999999978e+03
2.484186000000221316e-05,3.301938474999999926e+03
2.663505000000299008e-05,3.324722793999999794e+03
2.853948999999999939e-05,3.343766340000000127e+03
3.056177999999931693e-05,3.355384680000000117e+03
3.273476000000385668e-05,3.360105125999999927e+03
3.504221000000029345e-05,3.361983450000000175e+03
3.749187000000375801e-05,3.365021036000000095e+03
4.012283000000138594e-05,3.370750747000000047e+03
4.291596000000197630e-05,3.375855752999999822e+03
4.588092000000188158e-05,3.374437508999999864e+03
4.906516000000493618e-05,3.364925225999999839e+03
5.244525000000521843e-05,3.351519941000000017e+03
5.603219000000336911e-05,3.340377002000000175e+03
5.988182000000108544e-05,3.335618937000000187e+03
6.396735999999947559e-05,3.335009184999999889e+03
6.830338000000323831e-05,3.330159387000000152e+03
7.295892000000491796e-05,3.315387725000000046e+03
7.790085000000601873e-05,3.292458478999999897e+03
8.314568000000121747e-05,3.269435218999999961e+03
8.877431000000513179e-05,3.253966770999999881e+03
9.474836000000408571e-05,3.249052532000000156e+03
1.010890800000012734e-04,3.247799762000000101e+03
1.078953100000035144e-04,3.238040136999999959e+03
1.151189400000021169e-04,3.213410612000000128e+03
1.227825600000045296e-04,3.180003638000000137e+03
1.309981600000043023e-04,3.149208392999999887e+03
1.397124900000008677e-04,3.130135333000000173e+03
1.489568600000055099e-04,3.125733501000000160e+03
1.588717400000021565e-04,3.129205590000000029e+03
1.693890800000019713e-04,3.121723469999999907e+03
1.805413500000056944e-04,3.089605425000000196e+03
1.924860700000010619e-04,3.046503364000000147e+03
2.051441900000057321e-04,3.007712996000000203e+03
2.185562100000026974e-04,2.982041247000000112e+03
2.329131700000033433e-04,2.974704291000000012e+03
2.481125100000056453e-04,2.983899006999999983e+03
2.641920400000046182e-04,2.990558781000000181e+03
2.813573600000012008e-04,2.969412621999999828e+03
2.994908600000059087e-04,2.923831379000000197e+03
3.186383500000004930e-04,2.870547783999999865e+03
3.390493000000063492e-04,2.832031876999999895e+03
3.605709700000047963e-04,2.811793522999999823e+03
3.832434600000027324e-04,2.813402558000000226e+03
4.073393400000000484e-04,2.831638918999999987e+03
4.326763100000050521e-04,2.838715415000000121e+03
4.592927300000013450e-04,2.816580673999999817e+03
4.874964100000056489e-04,2.771453320999999960e+03
5.170662300000046637e-04,2.723345926999999847e+03
5.480371400000052119e-04,2.684549316999999974e+03
5.807510200000010146e-04,2.660109166000000187e+03
6.149535800000051691e-04,2.656288062000000082e+03
6.506720799999996061e-04,2.670221500999999989e+03
6.882695500000010885e-04,2.681707770999999866e+03
7.274576800000005740e-04,2.673126569000000018e+03
7.682654900000045108e-04,2.645565384999999878e+03
8.110991799999994105e-04,2.611552494999999908e+03
8.556379000000049898e-04,2.580106548000000203e+03
9.019036000000042307e-04,2.553734906000000137e+03
9.503145400000008328e-04,2.533569757000000209e+03
1.000531350000002755e-03,2.523265115000000151e+03
1.052588599999999906e-03,2.521400709999999890e+03
1.106968800000004234e-03,2.521042812000000140e+03
1.163295210000001067e-03,2.517507528999999977e+03
1.221590740000003377e-03,2.508927546999999777e+03
1.282332510000003343e-03,2.494197248999999829e+03
1.345132100000000653e-03,2.475937162000000171e+03
1.410027730000003050e-03,2.458392152999999780e+03
1.477557320000002410e-03,2.443668495999999777e+03
1.547301330000003293e-03,2.432065583999999944e+03
1.619295170000000818e-03,2.423434991999999966e+03
1.694089060000003198e-03,2.417616748999999800e+03
1.771251680000005902e-03,2.413599129000000175e+03
1.850836810000004154e-03,2.409641110999999910e+03
1.933476060000003825e-03,2.404641505000000052e+03
2.018691040000000249e-03,2.398506840999999895e+03
2.106527720000002726e-03,2.390581657000000178e+03
2.197624260000005051e-03,2.380903827000000092e+03
2.291486570000003491e-03,2.370971054999999978e+03
2.388178300000000018e-03,2.361405068999999912e+03
2.488413970000003580e-03,2.352807373000000098e+03
2.591655970000005232e-03,2.345730245000000195e+03
2.697969120000003138e-03,2.339473618999999871e+03
2.808102840000003837e-03,2.333366206000000147e+03
2.921492390000004439e-03,2.326292367999999897e+03
3.038220290000005243e-03,2.318768034000000171e+03
3.159134290000004553e-03,2.312813947999999982e+03
3.283606540000000990e-03,2.308797138999999788e+03
3.411716310000002632e-03,2.305314464999999927e+03
3.544346459999999765e-03,2.300982614000000012e+03
3.680834320000002640e-03,2.295595882000000074e+03
3.821277260000002091e-03,2.289475655000000188e+03
3.966657430000005390e-03,2.282984419999999773e+03
4.116248860000006407e-03,2.276559168000000227e+03
4.270153159999999851e-03,2.270448500999999851e+03
4.429417530000001949e-03,2.264294292000000041e+03
4.593266330000005983e-03,2.257615633999999773e+03
4.761820400000004415e-03,2.250357661999999891e+03
4.936253950000001230e-03,2.242530300999999781e+03
5.115705310000003003e-03,2.234691084999999930e+03
5.300295830000002761e-03,2.227735881999999947e+03
5.491269360000003777e-03,2.221588346000000001e+03
5.687704480000000708e-03,2.215614438999999948e+03
5.889743980000005860e-03,2.209149839000000156e+03
6.098768200000001874e-03,2.201697770000000219e+03
6.313765080000002979e-03,2.193565587000000050e+03
6.534884460000000249e-03,2.185722451000000092e+03
6.763608720000000539e-03,2.179560916999999790e+03
6.998845690000003381e-03,2.176151710000000094e+03
7.240768559999999354e-03,2.175968346000000111e+03
7.491032130000000247e-03,2.177901545000000169e+03
7.748423210000006042e-03,2.180180764000000181e+03
8.013118590000005079e-03,2.180836789999999837e+03
8.286882580000003509e-03,2.178671499999999924e+03
8.568412600000002016e-03,2.173037200000000212e+03
8.857913570000000569e-03,2.164267538999999942e+03
9.157339509999999280e-03,2.153764153000000078e+03
9.465257280000003576e-03,2.143706939000000148e+03
9.781885490000001224e-03,2.136085559999999987e+03
1.010933098000000273e-02,2.131956324000000222e+03
1.044604288000000082e-02,2.131248887000000195e+03
1.079226739999999962e-02,2.133178981999999905e+03
1.115034808000000058e-02,2.136531618999999864e+03
1.151856202000000468e-02,2.140157945999999811e+03
1.189716397000000099e-02,2.143043537999999899e+03
1.228865901000000295e-02,2.144016097000000173e+03
1.269119987000000629e-02,2.142308388999999806e+03
1.310508054000000290e-02,2.138435540999999830e+03
1.353307584000000910e-02,2.134420689000000039e+03
1.397314370000000798e-02,2.132517766999999822e+03
1.442559228999999721e-02,2.133882666999999856e+03
1.489340350999999833e-02,2.138043968999999834e+03
1.537437843000000713e-02,2.143122666000000208e+03
1.586886735999999687e-02,2.147102453999999852e+03
1.638018608000000112e-02,2.148467168000000129e+03
1.690589769000000464e-02,2.146235508000000209e+03
1.744636752000000915e-02,2.140301034999999956e+03
1.800513877999999554e-02,2.132122709000000214e+03
1.857958802999999659e-02,2.124404376999999840e+03
1.917012784999999955e-02,2.119622359999999844e+03
1.978066438000000357e-02,2.118931156999999985e+03
2.040832374000000130e-02,2.121516822999999931e+03
2.105354715000000085e-02,2.125336682000000110e+03
2.172053956000000521e-02,2.128044643000000178e+03
2.240618889000000821e-02,2.127614498999999796e+03
2.311098796999999649e-02,2.122896987000000081e+03
2.383959972000001051e-02,2.114611093999999866e+03
2.458857980000000651e-02,2.105596621000000141e+03
2.535844570999999659e-02,2.099426191000000017e+03
2.615417908000000624e-02,2.098479511000000002e+03
2.697210264000000218e-02,2.102430478000000221e+03
2.781280227999999993e-02,2.108530232999999953e+03
2.868172948000000111e-02,2.112932624999999916e+03
2.957483580999999487e-02,2.112551472999999987e+03
3.049275366999999737e-02,2.106605301999999938e+03
3.144140147000000496e-02,2.097213855999999851e+03
3.241638892999999799e-02,2.088464520999999877e+03
3.341839851000000250e-02,2.084149847000000136e+03
3.445391624000000014e-02,2.085568800999999894e+03
3.551813385000000128e-02,2.090804003000000193e+03
3.661178068000001118e-02,2.096011203000000023e+03
3.774185635999999927e-02,2.097394475000000057e+03
3.890317253000000891e-02,2.093184357999999975e+03
4.009652327000000349e-02,2.084745816999999988e+03
4.132952638000000206e-02,2.076221118999999817e+03
4.259652655000000648e-02,2.072128741999999875e+03
4.389838686999999323e-02,2.074429142999999840e+03
4.524337006000000300e-02,2.081269765000000007e+03
4.662532600000000166e-02,2.087946641999999883e+03
4.804521209999999820e-02,2.089639032000000043e+03
4.951194469999999764e-02,2.084449763999999959e+03
5.101889119999999944e-02,2.074856607000000167e+03
5.256707730000000772e-02,2.066247953999999936e+03
5.416616720000000385e-02,2.063571778999999879e+03
5.580896099999999721e-02,2.067854957999999897e+03
5.749653450000000859e-02,2.075586999000000105e+03
5.923941290000000331e-02,2.081028616999999940e+03
6.102973529999999869e-02,2.079843267000000196e+03
6.286869790000000624e-02,2.071774367999999868e+03
6.476767890000000027e-02,2.061226594000000205e+03
6.671815190000000839e-02,2.054720175999999810e+03
6.872138669999999783e-02,2.056227045000000089e+03
7.078967290000000301e-02,2.064303981999999905e+03
7.291379480000000080e-02,2.072945305000000189e+03
7.509511750000000263e-02,2.075721208999999817e+03
7.734700170000000097e-02,2.069832871000000068e+03
7.965938290000000588e-02,2.058389751000000160e+03
8.203372170000002017e-02,2.048493035999999847e+03
8.448443690000000117e-02,2.046456063000000086e+03
8.700063699999999178e-02,2.053100742999999966e+03
8.958388359999999717e-02,2.063184467999999924e+03
9.224979320000001315e-02,2.068949024999999892e+03
9.498651450000000773e-02,2.065593871000000036e+03
9.779571159999998764e-02,2.054638594999999896e+03
1.006942069999999939e-01,2.043230988999999909e+03
1.036691888000000200e-01,2.039258446000000049e+03
1.067224264999999950e-01,2.045448918000000049e+03
1.098720938000000008e-01,2.057257967999999892e+03
1.131042743999999961e-01,2.066220577999999932e+03
1.164208439999999956e-01,2.065839205000000220e+03
1.198413707000000189e-01,2.055734911999999895e+03
1.233507929000000058e-01,2.042017468999999892e+03
1.269510912000000047e-01,2.033461377000000084e+03
1.306632944999999990e-01,2.035681632000000036e+03
1.344711257000000271e-01,2.047003785000000107e+03
1.383766706999999818e-01,2.059781093999999939e+03
1.424025587999999953e-01,2.065444817000000057e+03
1.465311542000000133e-01,2.059924169999999776e+03
1.507646397999999888e-01,2.046059359999999970e+03
1.551271747999999895e-01,2.032048911999999973e+03
1.595998182999999737e-01,2.026613239999999905e+03
1.641848511000000010e-01,2.033112538999999970e+03
1.689081714000000012e-01,2.047193127999999888e+03
1.737493137999999715e-01,2.059882674999999836e+03
1.787106415000000170e-01,2.063476024999999936e+03
1.838196705000000319e-01,2.055681622999999945e+03
1.890545053999999892e-01,2.040590850000000046e+03
1.944175890999999823e-01,2.026368868000000020e+03
1.999384026000000092e-01,2.021158554999999978e+03
2.055932467999999624e-01,2.028142575000000079e+03
2.113846173999999745e-01,2.043312294999999949e+03
2.173435277999999915e-01,2.057794840999999906e+03
2.234448611999999834e-01,2.063578221000000212e+03
2.296911615999999989e-01,2.057944993000000068e+03
2.361153964999999633e-01,2.043893718000000035e+03
2.426905722999999904e-01,2.028055910000000040e+03
2.494192473999999604e-01,2.017847725000000082e+03
2.563359520999999863e-01,2.018469859999999926e+03
2.634121441999999758e-01,2.029967098999999962e+03
2.706503818000000061e-01,2.046724306000000070e+03
2.780873138999999661e-01,2.060231694999999945e+03
2.856922306999999939e-01,2.064055306000000201e+03
2.934676415999999954e-01,2.057056599000000006e+03
3.014514358999999533e-01,2.042801952000000028e+03
3.096115247999999820e-01,2.027180446999999958e+03
3.179503517999999751e-01,2.016095739000000094e+03
3.265076534999999947e-01,2.013970634999999902e+03
3.352492774999999980e-01,2.021965230999999903e+03
3.441775442000000185e-01,2.037072325999999975e+03
3.533333222000000218e-01,2.052923060999999961e+03
3.626810019999999746e-01,2.062794515999999931e+03
3.722227510000000184e-01,2.063061884000000191e+03
3.820012759999999452e-01,2.054456059000000096e+03
3.919786960999999681e-01,2.040840408999999909e+03
4.021569536999999861e-01,2.026709448000000066e+03
4.125792316000000404e-01,2.015842969999999923e+03
4.232066058999999769e-01,2.011126848000000109e+03
4.340407618000000078e-01,2.014448873999999932e+03
4.451260856999999516e-01,2.025760459000000083e+03
4.564217657999999900e-01,2.041909726000000092e+03
4.679291555000000269e-01,2.057420325000000048e+03
4.796927771000000229e-01,2.066802074000000175e+03
4.916708540999999988e-01,2.067177232999999887e+03
5.038643649999999807e-01,2.059227464999999938e+03
5.163187499000000402e-01,2.046334910000000036e+03
5.289903496000000205e-01,2.032730606000000080e+03
5.418796852999999691e-01,2.021556933999999956e+03
5.550313004000000383e-01,2.014223557999999912e+03
5.684013170000000725e-01,2.011134849000000031e+03
5.819897633000000736e-01,2.012820388999999977e+03
5.958410620000000879e-01,2.020046659999999974e+03
6.099102197000000336e-01,2.032521338999999898e+03
6.241966978000000887e-01,2.047860795000000053e+03
6.387434421000000029e-01,2.061877616000000216e+03
6.535055681000000449e-01,2.070457143999999971e+03
6.684819371000001453e-01,2.071534713000000011e+03
6.837147972000000573e-01,2.065631311000000096e+03
6.991584876000001003e-01,2.055074384000000009e+03
7.148112044000000109e-01,2.042561275999999907e+03
7.307124289000000994e-01,2.030179941000000099e+03
7.468176958000000143e-01,2.019147682999999915e+03
7.631245269000000997e-01,2.010060040000000072e+03
7.796704016000000070e-01,2.003432412000000113e+03
7.964112369000000413e-01,2.000002070999999887e+03
8.133438432999999801e-01,2.000676711999999952e+03
8.305022750000000675e-01,2.006194574000000102e+03
8.478442193999999876e-01,2.016543805999999904e+03
8.653657873000001333e-01,2.030613673000000063e+03
8.830983266999999914e-01,2.046134988999999905e+03
9.010005864000001363e-01,2.060152682999999797e+03
9.190679692000000012e-01,2.069979846000000180e+03
9.373271986000001332e-01,2.074022336999999879e+03
9.557400449999999825e-01,2.072252794999999878e+03
9.743012530000000337e-01,2.066028260999999929e+03
9.930336380000001073e-01,2.057446758999999929e+03
1.011901377000000046e+00,2.048569943999999850e+03
1.030898592000000002e+00,2.040775084999999990e+03
1.050043057000000113e+00,2.034564568999999892e+03
1.069302618000000038e+00,2.029800097999999934e+03
1.088670849999999968e+00,2.026137604999999894e+03
1.108161117999999945e+00,2.023353808999999956e+03
1.127744480999999910e+00,2.021404702000000043e+03
1.147414037000000109e+00,2.020340277000000015e+03
1.167177467999999996e+00,2.020256294999999909e+03
1.187010530000000008e+00,2.021318952000000081e+03
1.206905958999999973e+00,2.023797896000000037e+03
1.226866377999999980e+00,2.028006335999999919e+03
1.246871867999999939e+00,2.034131413999999950e+03
1.266914898000000012e+00,2.042048622000000023e+03
1.286992542999999989e+00,2.051198992999999973e+03
1.307089963999999993e+00,2.060610623000000032e+03
1.327199497000000061e+00,2.069085599999999886e+03
1.347313156000000012e+00,2.075476685999999972e+03
1.367420982000000063e+00,2.078963223000000198e+03
1.387515290999999928e+00,2.079229491999999937e+03
1.407582732000000059e+00,2.076500406999999996e+03
1.427618818000000234e+00,2.071436467999999877e+03
1.447615981000000218e+00,2.064951520000000073e+03
1.467555967000000017e+00,2.057999386999999842e+03
1.487439591999999866e+00,2.051389739000000191e+03
1.507259514999999883e+00,2.045676167000000078e+03
1.526992823000000055e+00,2.041110805000000028e+03
1.546645665000000003e+00,2.037676144000000022e+03
1.566211044999999968e+00,2.035166907999999921e+03
1.585661661000000056e+00,2.033285133999999971e+03
1.605008975000000060e+00,2.031733917999999903e+03
1.624246440000000069e+00,2.030288326000000097e+03
1.643343004000000107e+00,2.028832638999999972e+03
1.662315027000000001e+00,2.027360871999999972e+03
1.681156492000000169e+00,2.025949159999999893e+03
1.699832775000000185e+00,2.024708879999999908e+03
1.718365139000000097e+00,2.023743993000000046e+03
1.736748174000000144e+00,2.023124188000000004e+03
1.754944490000000190e+00,2.022880043999999998e+03
1.772979593000000076e+00,2.023021762000000081e+03
1.790848723999999947e+00,2.023558606000000054e+03
1.808511662000000131e+00,2.024514949999999999e+03
1.825998320999999924e+00,2.025941403999999920e+03
1.843304642000000104e+00,2.027896085000000085e+03
1.860388868000000029e+00,2.030426913000000013e+03
1.877284085000000102e+00,2.033564523000000008e+03
1.893986938000000064e+00,2.037288694999999962e+03
1.910453907000000173e+00,2.041528266999999914e+03
1.926721495000000006e+00,2.046182416000000103e+03
1.942787056000000012e+00,2.051100907000000007e+03
1.958606398000000137e+00,2.056111158000000160e+03
1.974218328999999938e+00,2.061050679999999829e+03
1.989620887000000060e+00,2.065747409999999945e+03
2.004768738000000106e+00,2.070048535999999785e+03
2.019703413999999864e+00,2.073839410999999927e+03
