x [m],Heat flux [MW/m^2]
1.213118085000000103e-03,1.443973165999999964e+01
1.213243812999999921e-03,1.426615344000000007e+01
1.213495502999999923e-03,1.411597131000000083e+01
1.213874434999999983e-03,1.395141738999999959e+01
1.214382703999999967e-03,1.378702827000000042e+01
1.215023453999999892e-03,1.362941183999999950e+01
1.215799479000000084e-03,1.347215830000000025e+01
1.216714969000000065e-03,1.330465642000000059e+01
1.217775162999999933e-03,1.312031185000000022e+01
1.218985766000000096e-03,1.291527986000000006e+01
1.220353063999999937e-03,1.268887233999999964e+01
1.221885206000000073e-03,1.243636088999999956e+01
1.223590923000000092e-03,1.215997961999999966e+01
1.225479762000000012e-03,1.185912689000000064e+01
1.227563014000000036e-03,1.153292223999999955e+01
1.229853020000000073e-03,1.118305430000000023e+01
1.232364214999999907e-03,1.080569372000000072e+01
1.235112081999999905e-03,1.040629196000000078e+01
1.238114433000000016e-03,9.980833506999999827e+00
1.241390942999999903e-03,9.531554074000000654e+00
1.244963379999999972e-03,9.064119170999999753e+00
1.248856541000000018e-03,8.568325569000000641e+00
1.253097784000000011e-03,8.060670366000000087e+00
1.257717144000000068e-03,7.532151082999999581e+00
1.262748614000000101e-03,6.989385677999999658e+00
1.268229913000000096e-03,6.441521491999999682e+00
1.274202834000000024e-03,5.878702247999999742e+00
1.280713244000000056e-03,5.345330182999999735e+00
1.287811319000000060e-03,4.789751754000000084e+00
1.295552473000000007e-03,4.225766269000000186e+00
1.303995958999999922e-03,3.658103736999999800e+00
1.313205225999999979e-03,3.297816394999999901e+00
1.323246397000000076e-03,2.699746605000000077e+00
1.334185945000000012e-03,2.313291111999999927e+00
1.345622120000000048e-03,1.943537175999999977e+00
1.357895670999999943e-03,1.740563153000000085e+00
1.371894963000000077e-03,1.592691636999999938e+00
1.387861673999999908e-03,1.471528240000000043e+00
1.406070542999999931e-03,1.366854749999999896e+00
1.426834263999999901e-03,1.273937002000000041e+00
1.450508833000000017e-03,1.190202184999999968e+00
1.477498560999999976e-03,1.111864269000000016e+00
1.508263405000000038e-03,1.043360520000000013e+00
1.543325139000000000e-03,9.455290481000000469e-01
1.583276317000000032e-03,9.464077340000000005e-01
1.628788887000000079e-03,8.381770898999999497e-01
1.680623973000000028e-03,8.182969240999999894e-01
1.739643047999999944e-03,7.550403343999999572e-01
1.806820044000000038e-03,6.987920128000000286e-01
1.883254154000000040e-03,6.494729779000000258e-01
1.970184733999999927e-03,6.057989903999999592e-01
2.069005743000000130e-03,5.672178089999999617e-01
2.181282965000000146e-03,5.318106805000000215e-01
2.308769384000000213e-03,5.009627784000000306e-01
2.453424268999999849e-03,4.651557385999999794e-01
2.617429475999999942e-03,4.708804723000000192e-01
2.803205512000000142e-03,4.276904702000000058e-01
3.013427835000000079e-03,4.019009917999999959e-01
3.251038725000000070e-03,3.797556186000000111e-01
3.519256598999999895e-03,3.615213404000000019e-01
3.821578109999999948e-03,3.443858074999999741e-01
4.161774646000000050e-03,3.298869634000000106e-01
4.543876740999999719e-03,3.136045325999999855e-01
4.972148220999999570e-03,3.057441907999999819e-01
5.451040808000000119e-03,2.918292451999999759e-01
5.985134746999999644e-03,2.806997186999999894e-01
6.579050793999999779e-03,2.712852181000000029e-01
7.237344514999999832e-03,2.621952001999999782e-01
7.964368910000000149e-03,2.552903067000000248e-01
8.764110505999999148e-03,2.524256054999999832e-01
9.640001691999999442e-03,2.532846577999999793e-01
1.059471071000000000e-02,2.565434100999999800e-01
1.162991485999999991e-02,2.594461283999999757e-01
1.274607143999999942e-02,2.600075595999999933e-01
1.394220068999999992e-02,2.585047017000000058e-01
1.521569396999999935e-02,2.545547562000000097e-01
1.656217314000000065e-02,2.497807196000000063e-01
1.797541044999999976e-02,2.437660328000000043e-01
1.944733783999999868e-02,2.383856535999999970e-01
2.096815594000000019e-02,2.322702600000000062e-01
2.252653054999999988e-02,2.268168496999999895e-01
2.410990186000000132e-02,2.205258315999999996e-01
2.570487185999999896e-02,2.156643644000000026e-01
2.729764021999999887e-02,2.099743205000000057e-01
2.887448482000000080e-02,2.045827634000000061e-01
3.042222559000000090e-02,1.991230736000000057e-01
3.192865848999999756e-02,1.941316941000000018e-01
3.338290378000000058e-02,1.894044447999999881e-01
3.477570041999999972e-02,1.850625402999999947e-01
3.609955311000000167e-02,1.812483420999999872e-01
3.734883293999999992e-02,1.777475336000000072e-01
3.851973264999999924e-02,1.747990553000000058e-01
3.961017727999999877e-02,1.722450399000000076e-01
4.061967134000000340e-02,1.700898308000000081e-01
4.154907911999999870e-02,1.682329030999999975e-01
4.240042715999999684e-02,1.666736904999999991e-01
4.317663983000000205e-02,1.654035628999999952e-01
4.388135298999999712e-02,1.642243247999999878e-01
4.455129801999999778e-02,1.632957439999999927e-01
4.522124304999999844e-02,1.623663146999999862e-01
4.589118435999999662e-02,1.614947492999999901e-01
4.656112938999999729e-02,1.606669151000000018e-01
4.723107441999999795e-02,1.598755679999999957e-01
4.790101944999999861e-02,1.591161902000000072e-01
4.857096449000000010e-02,1.583853725999999906e-01
4.924090578999999746e-02,1.576803695000000005e-01
4.991085081999999812e-02,1.569980605000000085e-01
5.058079584999999878e-02,1.563366184999999964e-01
5.125074089000000027e-02,1.556934812000000112e-01
5.192068592000000093e-02,1.550659419000000039e-01
5.259063095000000160e-02,1.544532899000000126e-01
5.326057224999999895e-02,1.538546557000000092e-01
5.393051729000000044e-02,1.532695095999999924e-01
5.460046232000000110e-02,1.526975298999999897e-01
5.527040735000000177e-02,1.521384450999999915e-01
5.594035238000000243e-02,1.515919968999999978e-01
5.661029369000000061e-02,1.510578095000000010e-01
5.728023872000000127e-02,1.505354664999999925e-01
5.795018375000000194e-02,1.500243890000000080e-01
5.862012878000000260e-02,1.495239335000000114e-01
5.929007381000000326e-02,1.490333940999999940e-01
5.996001512000000144e-02,1.485520850000000004e-01
6.062996015000000211e-02,1.480793546999999988e-01
6.129990518000000277e-02,1.476145762999999944e-01
6.196985021000000343e-02,1.471572485000000041e-01
6.263979524000000410e-02,1.467069867000000138e-01
6.330973654999999534e-02,1.462636451000000060e-01
6.397968531000000625e-02,1.458272126000000057e-01
6.464962660999999666e-02,1.453977915000000121e-01
6.531956792000000178e-02,1.449754986000000023e-01
6.598951667999999882e-02,1.445602802000000020e-01
6.665945798000000311e-02,1.441519974000000093e-01
6.732940674000000014e-02,1.437503167999999998e-01
6.799934804000000443e-02,1.433548924999999974e-01
6.866928934999999568e-02,1.429653919999999967e-01
6.933923811000000659e-02,1.425815558000000094e-01
7.000917940999999700e-02,1.422034556000000005e-01
7.067912816999999404e-02,1.418304324999999921e-01
7.134906947999999915e-02,1.414625632000000022e-01
7.201901078000000345e-02,1.411004660999999882e-01
7.268895954000000048e-02,1.407434580999999962e-01
7.335890085000000560e-02,1.403914998000000136e-01
7.402884960000000181e-02,1.400445429999999936e-01
7.469879091000000693e-02,1.397025339999999893e-01
7.536873966000000313e-02,1.393653801999999997e-01
7.603868096999999437e-02,1.390330337000000027e-01
7.670862227999999949e-02,1.387053916000000053e-01
7.737857102999999570e-02,1.383823629000000000e-01
7.804851234000000082e-02,1.380638597000000134e-01
7.871846109999999785e-02,1.377497665000000093e-01
7.938840240000000215e-02,1.374400020000000056e-01
8.005834370999999339e-02,1.371344123000000081e-01
8.072829247000000430e-02,1.368329077999999865e-01
8.139823376999999471e-02,1.365354037000000020e-01
8.206818253000000563e-02,1.362417867999999865e-01
8.273812382999999604e-02,1.359519334000000024e-01
8.340806514000000116e-02,1.356657528000000112e-01
8.407801389999999819e-02,1.353831573000000010e-01
8.474795520000000248e-02,1.351040618000000082e-01
8.541790395999999952e-02,1.348284264000000066e-01
8.608784527000000464e-02,1.345561983000000128e-01
8.675778656999999505e-02,1.342873398999999968e-01
8.742773533000000596e-02,1.340217743999999878e-01
8.809767662999999638e-02,1.337593442999999993e-01
8.876762538999999341e-02,1.334998289999999865e-01
8.943756669999999853e-02,1.332432034999999904e-01
9.010750800000000282e-02,1.329892561999999889e-01
9.077745675999999986e-02,1.327388445000000083e-01
9.144739807000000498e-02,1.324922601000000089e-01
9.211734682000000118e-02,1.322493016999999882e-01
9.278728813000000630e-02,1.320106188000000069e-01
9.345722943999999754e-02,1.317760289000000085e-01
9.412717818999999375e-02,1.315449193999999877e-01
9.479711949999999887e-02,1.313164656999999957e-01
9.546706824999999508e-02,1.310897906000000057e-01
9.613700956000000020e-02,1.308641667000000064e-01
9.680695087000000532e-02,1.306392607999999900e-01
9.747689962000000152e-02,1.304150581000000086e-01
9.814684093000000664e-02,1.301918881999999944e-01
9.881678969000000368e-02,1.299702063000000019e-01
9.948673098999999409e-02,1.297505036999999917e-01
1.001566722999999992e-01,1.295331862000000112e-01
1.008266210999999996e-01,1.293185054000000056e-01
1.014965624000000038e-01,1.291065278999999899e-01
1.021665110999999959e-01,1.288972006000000115e-01
1.028364524000000002e-01,1.286904011999999986e-01
1.035063937000000045e-01,1.284859758999999935e-01
1.041763425000000048e-01,1.282837746000000112e-01
1.048462837999999953e-01,1.280836740000000085e-01
1.055162325999999956e-01,1.278855771999999891e-01
1.061861738999999999e-01,1.276894008999999997e-01
1.068561226000000058e-01,1.274950407999999868e-01
1.075260638999999963e-01,1.273026090000000110e-01
1.081960052000000005e-01,1.271115680000000081e-01
1.088659540000000009e-01,1.269230222999999935e-01
1.095358953000000052e-01,1.267334462999999967e-01
1.102058439999999973e-01,1.265494587000000060e-01
1.108757853999999959e-01,1.263664869999999996e-01
1.115457267000000002e-01,1.261788893999999939e-01
1.122156754000000062e-01,1.260121392000000118e-01
1.128856166999999966e-01,1.258099793999999938e-01
1.135555654999999969e-01,1.256447918999999969e-01
1.142255068000000012e-01,1.254661239000000039e-01
1.148954481000000055e-01,1.252901485000000037e-01
1.155653967999999976e-01,1.251158897999999908e-01
1.162353381999999963e-01,1.249434011999999983e-01
1.169052869000000022e-01,1.247730855999999999e-01
1.175752282000000065e-01,1.246054290000000037e-01
1.182451694999999969e-01,1.244407738999999957e-01
1.189151182999999973e-01,1.242792427000000005e-01
1.195850596000000016e-01,1.241206001000000059e-01
1.202550082999999936e-01,1.239643069000000014e-01
1.209249495999999979e-01,1.238095859000000049e-01
1.215948909999999966e-01,1.236556471999999962e-01
1.222648397000000026e-01,1.235018268000000058e-01
1.229347810000000069e-01,1.233477498999999977e-01
1.236047297999999933e-01,1.231933426999999998e-01
1.242746710999999976e-01,1.230388238999999967e-01
1.249446124000000019e-01,1.228845719000000031e-01
1.256145536999999923e-01,1.227310248999999992e-01
1.262845099000000082e-01,1.225786095999999992e-01
1.269544512000000125e-01,1.224276130000000046e-01
1.276243924999999890e-01,1.222781921000000022e-01
1.282943337999999933e-01,1.221303975999999958e-01
1.289642750999999976e-01,1.219841948000000009e-01
1.296342313000000135e-01,1.218394752000000053e-01
1.303041725999999900e-01,1.216961510999999968e-01
1.309741138999999943e-01,1.215540997999999956e-01
1.316440551999999986e-01,1.214132567999999940e-01
1.323139966000000112e-01,1.212735749999999946e-01
1.329839527999999993e-01,1.211350102999999984e-01
1.336538941000000036e-01,1.209975278999999987e-01
1.343238354000000079e-01,1.208611205000000022e-01
1.349937767000000122e-01,1.207257810999999986e-01
1.356637179999999887e-01,1.205914849000000039e-01
1.363336742000000046e-01,1.204582431999999953e-01
1.370036155000000089e-01,1.203260404999999950e-01
1.376735568000000132e-01,1.201948701999999980e-01
1.383434980999999897e-01,1.200646833999999968e-01
1.390134393999999940e-01,1.199355512000000040e-01
1.396833956000000099e-01,1.198073639000000051e-01
1.403533368999999864e-01,1.196801942000000063e-01
1.410232781999999907e-01,1.195539761000000006e-01
1.416932194999999950e-01,1.194287301999999995e-01
1.423631607999999993e-01,1.193044174000000013e-01
1.430331170999999957e-01,1.191810414000000068e-01
1.437030584000000000e-01,1.190585806999999996e-01
1.443729997000000043e-01,1.189370149999999932e-01
1.450429410000000086e-01,1.188163636000000023e-01
1.457128971999999967e-01,1.186965898999999963e-01
1.463828385000000010e-01,1.185776900999999939e-01
1.470527798000000053e-01,1.184596685000000038e-01
1.477227211000000096e-01,1.183424968999999966e-01
1.483926624000000138e-01,1.182261881999999986e-01
1.490626036999999904e-01,1.181107227000000037e-01
1.497325599000000063e-01,1.179960889999999984e-01
1.504025012000000106e-01,1.178822920999999940e-01
1.510724424999999871e-01,1.177693056999999932e-01
1.517423837999999914e-01,1.176571413000000038e-01
1.524123400000000073e-01,1.175457649999999965e-01
1.530822813999999921e-01,1.174351824000000044e-01
1.537522226999999964e-01,1.173253672999999969e-01
1.544221640000000006e-01,1.172163175999999946e-01
1.550921053000000049e-01,1.171080156000000039e-01
1.557620466000000092e-01,1.170004515000000050e-01
1.564320027999999974e-01,1.168936082999999931e-01
1.571019441000000016e-01,1.167874997999999997e-01
1.577718854000000059e-01,1.166820935999999947e-01
1.584418267000000102e-01,1.165774036999999985e-01
1.591117828999999984e-01,1.164734057999999989e-01
1.597817242000000026e-01,1.163701139999999967e-01
1.604516655000000069e-01,1.162674984000000022e-01
1.611216068000000112e-01,1.161655847999999991e-01
1.617915480999999878e-01,1.160643437999999972e-01
1.624615043000000036e-01,1.159637669000000010e-01
1.631314456000000079e-01,1.158638460000000064e-01
1.638013869999999927e-01,1.157645657999999966e-01
1.644713282999999970e-01,1.156659257000000052e-01
1.651412696000000013e-01,1.155679032999999967e-01
1.658112257999999894e-01,1.154704911000000028e-01
1.664811670999999937e-01,1.153736816999999942e-01
1.671511083999999980e-01,1.152774753000000013e-01
1.678210497000000023e-01,1.151818500000000023e-01
1.684909910000000066e-01,1.150868132999999932e-01
1.691609471999999947e-01,1.149923654000000045e-01
1.698308884999999990e-01,1.148984851000000029e-01
1.705008298000000033e-01,1.148051868999999947e-01
1.711707711000000076e-01,1.147124570000000038e-01
1.718407124000000119e-01,1.146202956000000051e-01
1.725106686000000000e-01,1.145286962999999963e-01
1.731806099000000043e-01,1.144376401999999959e-01
1.738505512000000086e-01,1.143471523000000045e-01
1.745204925999999934e-01,1.142572139999999958e-01
1.751904338999999977e-01,1.141678259000000056e-01
1.758603901000000136e-01,1.140789747000000021e-01
1.765303313999999901e-01,1.139906544999999966e-01
1.772002726999999944e-01,1.139028660000000054e-01
1.778702139999999987e-01,1.138155963000000021e-01
1.785401553000000030e-01,1.137288463999999999e-01
1.792101114999999911e-01,1.136426105000000047e-01
1.798800527999999954e-01,1.135568829000000030e-01
1.805499940999999997e-01,1.134716578000000003e-01
1.812199354000000040e-01,1.133869163999999957e-01
1.818898767000000083e-01,1.133028258000000066e-01
1.825598328999999964e-01,1.132189955999999970e-01
1.832297742000000007e-01,1.131355150000000059e-01
1.838997155000000050e-01,1.130528264000000005e-01
1.845696568000000093e-01,1.129705681000000017e-01
1.852395981999999941e-01,1.128887224000000022e-01
1.859095544000000100e-01,1.128073239000000061e-01
1.865794956999999865e-01,1.127263824999999997e-01
1.872494369999999908e-01,1.126458895999999932e-01
1.879193782999999951e-01,1.125658551000000007e-01
1.885893195999999994e-01,1.124862741000000055e-01
1.892592757999999875e-01,1.124071289999999945e-01
1.899292170999999918e-01,1.123284278999999997e-01
1.905991583999999961e-01,1.122501788000000028e-01
1.912690997000000004e-01,1.121723518000000003e-01
1.919390410000000047e-01,1.120949549000000017e-01
1.926089971999999928e-01,1.120179711999999966e-01
1.932789384999999971e-01,1.119414338000000037e-01
1.939488798000000014e-01,1.118651638999999948e-01
1.946188211000000057e-01,1.117895183000000014e-01
1.952887624999999905e-01,1.117145523000000057e-01
1.959587187000000064e-01,1.116394710000000040e-01
1.966286600000000107e-01,1.115647173000000048e-01
1.972986012999999872e-01,1.114907036000000046e-01
1.979685425999999915e-01,1.114170446000000009e-01
1.986384838999999958e-01,1.113437245000000048e-01
1.993084401000000117e-01,1.112708023999999934e-01
1.999783813999999882e-01,1.111981137000000036e-01
2.006483226999999925e-01,1.111260426000000023e-01
2.013182639999999968e-01,1.110544631999999948e-01
2.019882202000000126e-01,1.109829645000000031e-01
2.026581614999999892e-01,1.109118909000000042e-01
2.033281027999999935e-01,1.108412262999999981e-01
2.039980440999999978e-01,1.107709312000000057e-01
2.046679854000000021e-01,1.107010020000000067e-01
2.053379267000000064e-01,1.106314352000000029e-01
2.060078830000000027e-01,1.105622270999999934e-01
2.066778243000000070e-01,1.104933627000000002e-01
2.073477656000000113e-01,1.104248617999999960e-01
2.080177068999999879e-01,1.103566977000000060e-01
2.086876631000000037e-01,1.102889019999999942e-01
2.093576044000000080e-01,1.102214133000000013e-01
2.100275457000000123e-01,1.101542863000000011e-01
2.106974869999999889e-01,1.100874946000000021e-01
2.113674282999999932e-01,1.100210464000000027e-01
2.120373695999999974e-01,1.099549060999999994e-01
2.127073258000000133e-01,1.098891126000000051e-01
2.133772670999999899e-01,1.098236417999999964e-01
2.140472083999999942e-01,1.097585018999999995e-01
2.147171496999999984e-01,1.096936787000000052e-01
2.153871058999999866e-01,1.096291689999999985e-01
2.160570471999999909e-01,1.095649701000000059e-01
2.167269886000000034e-01,1.095010901999999980e-01
2.173969299000000077e-01,1.094375263000000043e-01
2.180668712000000120e-01,1.093742535000000043e-01
2.187368274000000001e-01,1.093113019999999991e-01
2.194067687000000044e-01,1.092486359999999962e-01
2.200767100000000087e-01,1.091862747000000022e-01
2.207466513000000130e-01,1.091242154999999964e-01
2.214165925999999895e-01,1.090624555999999967e-01
2.220865488000000054e-01,1.090009814000000021e-01
2.227564901000000097e-01,1.089398010999999972e-01
2.234264313999999862e-01,1.088789121999999970e-01
2.240963726999999905e-01,1.088183119000000060e-01
2.247663139999999948e-01,1.087579889000000050e-01
2.254362702000000107e-01,1.086979690999999998e-01
2.261062114999999872e-01,1.086382194999999939e-01
2.267761527999999915e-01,1.085787591999999996e-01
2.274460942000000041e-01,1.085195855000000015e-01
2.281160355000000084e-01,1.084606959999999953e-01
2.287859916999999965e-01,1.084020985999999964e-01
2.294559330000000008e-01,1.083437802000000033e-01
2.301258743000000051e-01,1.082857490999999950e-01
2.307958156000000094e-01,1.082279711999999949e-01
2.314657569000000137e-01,1.081704026000000068e-01
2.321357131000000018e-01,1.081130312999999954e-01
2.328056544000000061e-01,1.080558140000000000e-01
2.334755957000000104e-01,1.079987699999999939e-01
2.341455369999999869e-01,1.079419803999999983e-01
2.348154782999999912e-01,1.078856073000000054e-01
2.354854345000000071e-01,1.078298827999999987e-01
2.361553758000000114e-01,1.077750668999999939e-01
2.368253170999999879e-01,1.077214576000000007e-01
2.374952585000000005e-01,1.076692699999999975e-01
2.381651998000000048e-01,1.076186100000000034e-01
2.388351559999999929e-01,1.075694261999999984e-01
2.395050972999999972e-01,1.075214542999999995e-01
2.401750386000000015e-01,1.074742622999999980e-01
2.408449799000000058e-01,1.074273027999999991e-01
2.415149212000000101e-01,1.073799745000000028e-01
2.421848773999999982e-01,1.073316926999999948e-01
2.428548187000000025e-01,1.072820084000000035e-01
2.435247600000000068e-01,1.072306261000000038e-01
2.441947013000000111e-01,1.071774706999999993e-01
2.448646425999999876e-01,1.071226653000000029e-01
2.455345988000000035e-01,1.070664788000000034e-01
