x [m],Heat flux [MW/m^2]
1.213118085000000103e-03,1.443973283999999957e+01
1.213243812999999921e-03,1.426615501000000030e+01
1.213495502999999923e-03,1.411597225000000044e+01
1.213874434999999983e-03,1.395141738999999959e+01
1.214382703999999967e-03,1.378702827000000042e+01
1.215023453999999892e-03,1.362941183999999950e+01
1.215799479000000084e-03,1.347215830000000025e+01
1.216714969000000065e-03,1.330465762000000041e+01
1.217775162999999933e-03,1.312031288999999923e+01
1.218985766000000096e-03,1.291528077999999979e+01
1.220353063999999937e-03,1.268887233999999964e+01
1.221885206000000073e-03,1.243636234999999957e+01
1.223590923000000092e-03,1.215997961999999966e+01
1.225479762000000012e-03,1.185912689000000064e+01
1.227563014000000036e-03,1.153292223999999955e+01
1.229853020000000073e-03,1.118305430000000023e+01
1.232364214999999907e-03,1.080569372000000072e+01
1.235112081999999905e-03,1.040629277999999935e+01
1.238114433000000016e-03,9.980833506999999827e+00
1.241390942999999903e-03,9.531554763000000818e+00
1.244963379999999972e-03,9.064119804000000613e+00
1.248856541000000018e-03,8.568323827000000392e+00
1.253097784000000011e-03,8.060676231000000413e+00
1.257717144000000068e-03,7.532145209000000285e+00
1.262748614000000101e-03,6.989386577000000322e+00
1.268229913000000096e-03,6.441519429000000407e+00
1.274202834000000024e-03,5.878716629000000360e+00
1.280713244000000056e-03,5.345298940000000165e+00
1.287811319000000060e-03,4.789776904000000002e+00
1.295552473000000007e-03,4.225739707999999872e+00
1.303995958999999922e-03,3.658440371999999829e+00
1.313205225999999979e-03,3.297584029999999888e+00
1.323246397000000076e-03,2.699677271000000101e+00
1.334185945000000012e-03,2.312928900999999815e+00
1.345622120000000048e-03,1.943426498000000002e+00
1.357895670999999943e-03,1.740324280999999917e+00
1.371894963000000077e-03,1.592833071000000045e+00
1.387861673999999908e-03,1.471264219000000040e+00
1.406070542999999931e-03,1.366867129999999930e+00
1.426834263999999901e-03,1.274054100000000078e+00
1.450508833000000017e-03,1.190250154999999976e+00
1.477498560999999976e-03,1.112393667999999947e+00
1.508263405000000038e-03,1.039049738999999972e+00
1.543325139000000000e-03,9.701639435000000145e-01
1.583276317000000032e-03,9.057325295999999470e-01
1.628788887000000079e-03,8.456541744000000138e-01
1.680623973000000028e-03,7.897068607999999656e-01
1.739643047999999944e-03,7.376197648000000218e-01
1.806820044000000038e-03,6.889311312000000465e-01
1.883254154000000040e-03,6.442394513000000433e-01
1.970184733999999927e-03,6.025430998999999899e-01
2.069005743000000130e-03,5.648137991999999663e-01
2.181282965000000146e-03,5.300190098000000516e-01
2.308769384000000213e-03,4.996089525999999892e-01
2.453424268999999849e-03,4.644345951000000139e-01
2.617429475999999942e-03,4.705251663000000195e-01
2.803205512000000142e-03,4.278322042000000103e-01
3.013427835000000079e-03,4.020541444999999880e-01
3.251038725000000070e-03,3.798394690999999934e-01
3.519256598999999895e-03,3.615058459000000113e-01
3.821578109999999948e-03,3.444960886000000277e-01
4.161774646000000050e-03,3.295663642000000171e-01
4.543876740999999719e-03,3.138063822000000114e-01
4.972148220999999570e-03,3.057339079999999987e-01
5.451040808000000119e-03,2.913360685999999977e-01
5.985134746999999644e-03,2.798640010999999816e-01
6.579050793999999779e-03,2.703709685999999834e-01
7.237344514999999832e-03,2.609601582000000142e-01
7.964368910000000149e-03,2.515738144999999926e-01
8.764110505999999148e-03,2.424096404999999954e-01
9.640001691999999442e-03,2.333009973999999875e-01
1.059471071000000000e-02,2.241719826000000138e-01
1.162991485999999991e-02,2.155724965999999965e-01
1.274607143999999942e-02,2.063981477999999870e-01
1.394220068999999992e-02,1.984978521000000107e-01
1.521569396999999935e-02,1.897695719999999975e-01
1.656217314000000065e-02,1.825111379000000089e-01
1.797541044999999976e-02,1.742521918000000114e-01
1.944733783999999868e-02,1.677287922000000042e-01
2.096815594000000019e-02,1.609628667000000124e-01
2.252653054999999988e-02,1.551946898000000075e-01
2.410990186000000132e-02,1.488393905000000017e-01
2.570487185999999896e-02,1.447059068999999865e-01
2.729764021999999887e-02,1.403930942999999931e-01
2.887448482000000080e-02,1.367870171999999995e-01
3.042222559000000090e-02,1.337607107000000073e-01
3.192865848999999756e-02,1.315910017999999959e-01
3.338290378000000058e-02,1.303607210000000127e-01
3.477570041999999972e-02,1.301848754999999913e-01
3.609955311000000167e-02,1.310968416000000136e-01
3.734883293999999992e-02,1.326234639999999965e-01
3.851973264999999924e-02,1.346381140000000032e-01
3.961017727999999877e-02,1.368032054999999969e-01
4.061967134000000340e-02,1.388960713000000069e-01
4.154907911999999870e-02,1.408426210000000012e-01
4.240042715999999684e-02,1.425127210999999894e-01
4.317663983000000205e-02,1.440493566000000114e-01
4.388135298999999712e-02,1.450353940999999924e-01
4.455129801999999778e-02,1.459879776999999934e-01
4.522124304999999844e-02,1.467253524999999892e-01
4.589118435999999662e-02,1.473030300000000015e-01
4.656112938999999729e-02,1.477252983000000019e-01
4.723107441999999795e-02,1.480070102999999915e-01
4.790101944999999861e-02,1.481684534999999914e-01
4.857096449000000010e-02,1.482264011999999964e-01
4.924090578999999746e-02,1.481986369000000137e-01
4.991085081999999812e-02,1.480964650999999910e-01
5.058079584999999878e-02,1.479284260000000017e-01
5.125074089000000027e-02,1.477051977000000127e-01
5.192068592000000093e-02,1.474375474000000075e-01
5.259063095000000160e-02,1.471344323000000065e-01
5.326057224999999895e-02,1.468034176000000135e-01
5.393051729000000044e-02,1.464495382000000068e-01
5.460046232000000110e-02,1.460753023999999956e-01
5.527040735000000177e-02,1.456838947999999911e-01
5.594035238000000243e-02,1.452775496000000000e-01
5.661029369000000061e-02,1.448590120000000092e-01
5.728023872000000127e-02,1.444315130000000114e-01
5.795018375000000194e-02,1.439981097999999959e-01
5.862012878000000260e-02,1.435614433000000079e-01
5.929007381000000326e-02,1.431235976000000132e-01
5.996001512000000144e-02,1.426854059999999869e-01
6.062996015000000211e-02,1.422480556000000063e-01
6.129990518000000277e-02,1.418130428999999915e-01
6.196985021000000343e-02,1.413807106999999952e-01
6.263979524000000410e-02,1.409515980000000113e-01
6.330973654999999534e-02,1.405265947999999876e-01
6.397968531000000625e-02,1.401064197999999927e-01
6.464962660999999666e-02,1.396911841000000043e-01
6.531956792000000178e-02,1.392811881999999890e-01
6.598951667999999882e-02,1.388766556999999902e-01
6.665945798000000311e-02,1.384775407000000125e-01
6.732940674000000014e-02,1.380840751000000088e-01
6.799934804000000443e-02,1.376964467000000025e-01
6.866928934999999568e-02,1.373144933000000067e-01
6.933923811000000659e-02,1.369385807999999871e-01
7.000917940999999700e-02,1.365686483999999923e-01
7.067912816999999404e-02,1.362043380000000081e-01
7.134906947999999915e-02,1.358456011999999991e-01
7.201901078000000345e-02,1.354926173000000067e-01
7.268895954000000048e-02,1.351450195999999992e-01
7.335890085000000560e-02,1.348026693000000109e-01
7.402884960000000181e-02,1.344656842999999991e-01
7.469879091000000693e-02,1.341337427000000027e-01
7.536873966000000313e-02,1.338065737999999949e-01
7.603868096999999437e-02,1.334849402000000129e-01
7.670862227999999949e-02,1.331699624000000082e-01
7.737857102999999570e-02,1.328619977000000119e-01
7.804851234000000082e-02,1.325608963999999890e-01
7.871846109999999785e-02,1.322664678999999899e-01
7.938840240000000215e-02,1.319773733000000060e-01
8.005834370999999339e-02,1.316923335999999889e-01
8.072829247000000430e-02,1.314098582000000071e-01
8.139823376999999471e-02,1.311292169999999924e-01
8.206818253000000563e-02,1.308513497999999886e-01
8.273812382999999604e-02,1.305765245999999935e-01
8.340806514000000116e-02,1.303051162999999957e-01
8.407801389999999819e-02,1.300379184999999882e-01
8.474795520000000248e-02,1.297756140999999919e-01
8.541790395999999952e-02,1.295181868999999986e-01
8.608784527000000464e-02,1.292649485000000043e-01
8.675778656999999505e-02,1.290153293000000090e-01
8.742773533000000596e-02,1.287693008999999944e-01
8.809767662999999638e-02,1.285269870999999897e-01
8.876762538999999341e-02,1.282882492000000096e-01
8.943756669999999853e-02,1.280525485000000019e-01
9.010750800000000282e-02,1.278195628000000084e-01
9.077745675999999986e-02,1.275892717999999870e-01
9.144739807000000498e-02,1.273622100000000035e-01
9.211734682000000118e-02,1.271377438000000082e-01
9.278728813000000630e-02,1.269155308999999898e-01
9.345722943999999754e-02,1.266956525000000056e-01
9.412717818999999375e-02,1.264777116999999951e-01
9.479711949999999887e-02,1.262622915000000123e-01
9.546706824999999508e-02,1.260496926000000129e-01
9.613700956000000020e-02,1.258396427000000040e-01
9.680695087000000532e-02,1.256317274000000039e-01
9.747689962000000152e-02,1.254259648000000116e-01
9.814684093000000664e-02,1.252228636999999922e-01
9.881678969000000368e-02,1.250227606000000047e-01
9.948673098999999409e-02,1.248253653000000046e-01
1.001566722999999992e-01,1.246299476999999933e-01
1.008266210999999996e-01,1.244359186999999950e-01
1.014965624000000038e-01,1.242435479000000009e-01
1.021665110999999959e-01,1.240538535000000053e-01
1.028364524000000002e-01,1.238679795999999972e-01
1.035063937000000045e-01,1.236866328000000015e-01
1.041763425000000048e-01,1.235096910999999992e-01
1.048462837999999953e-01,1.233363106999999931e-01
1.055162325999999956e-01,1.231653835000000030e-01
1.061861738999999999e-01,1.229957505000000006e-01
1.068561226000000058e-01,1.228265052999999996e-01
1.075260638999999963e-01,1.226570245000000031e-01
1.081960052000000005e-01,1.224870894999999932e-01
1.088659540000000009e-01,1.223169302000000069e-01
1.095358953000000052e-01,1.221469802000000049e-01
1.102058439999999973e-01,1.219784945000000065e-01
1.108757853999999959e-01,1.218112179999999989e-01
1.115457267000000002e-01,1.216480920999999937e-01
1.122156754000000062e-01,1.214880747999999983e-01
1.128856166999999966e-01,1.213316673999999956e-01
1.135555654999999969e-01,1.211717508999999998e-01
1.142255068000000012e-01,1.210306701000000013e-01
1.148954481000000055e-01,1.208573656000000024e-01
1.155653967999999976e-01,1.207218411000000047e-01
1.162353381999999963e-01,1.205710980999999959e-01
1.169052869000000022e-01,1.204238987000000038e-01
1.175752282000000065e-01,1.202785512999999945e-01
1.182451694999999969e-01,1.201339020999999951e-01
1.189151182999999973e-01,1.199892099000000045e-01
1.195850596000000016e-01,1.198444434000000003e-01
1.202550082999999936e-01,1.197001664999999965e-01
1.209249495999999979e-01,1.195573585000000022e-01
1.215948909999999966e-01,1.194170764999999967e-01
1.222648397000000026e-01,1.192800386999999934e-01
1.229347810000000069e-01,1.191464666999999950e-01
1.236047297999999933e-01,1.190161284999999985e-01
1.242746710999999976e-01,1.188883991999999945e-01
1.249446124000000019e-01,1.187625030999999998e-01
1.256145536999999923e-01,1.186378354999999968e-01
1.262845099000000082e-01,1.185140694999999994e-01
1.269544512000000125e-01,1.183910776000000054e-01
1.276243924999999890e-01,1.182687909000000037e-01
1.282943337999999933e-01,1.181470763000000007e-01
1.289642750999999976e-01,1.180259153000000061e-01
1.296342313000000135e-01,1.179050482999999955e-01
1.303041725999999900e-01,1.177849427000000060e-01
1.309741138999999943e-01,1.176656881999999932e-01
1.316440551999999986e-01,1.175470618999999994e-01
1.323139966000000112e-01,1.174296360999999983e-01
1.329839527999999993e-01,1.173132662999999964e-01
1.336538941000000036e-01,1.171975938999999939e-01
1.343238354000000079e-01,1.170822670999999982e-01
1.349937767000000122e-01,1.169671288999999947e-01
1.356637179999999887e-01,1.168521941999999952e-01
1.363336742000000046e-01,1.167377520000000002e-01
1.370036155000000089e-01,1.166242002000000000e-01
1.376735568000000132e-01,1.165120337999999978e-01
1.383434980999999897e-01,1.164016610999999979e-01
1.390134393999999940e-01,1.162932884000000000e-01
1.396833956000000099e-01,1.161868791999999956e-01
1.403533368999999864e-01,1.160818125000000062e-01
1.410232781999999907e-01,1.159778551999999935e-01
1.416932194999999950e-01,1.158751789000000004e-01
1.423631607999999993e-01,1.157732825999999993e-01
1.430331170999999957e-01,1.156722396000000042e-01
1.437030584000000000e-01,1.155722225999999964e-01
1.443729997000000043e-01,1.154733438000000029e-01
1.450429410000000086e-01,1.153755021999999936e-01
1.457128971999999967e-01,1.152782621999999951e-01
1.463828385000000010e-01,1.151809812000000044e-01
1.470527798000000053e-01,1.150830607000000033e-01
1.477227211000000096e-01,1.149842484000000026e-01
1.483926624000000138e-01,1.148847674999999985e-01
1.490626036999999904e-01,1.147852421000000039e-01
1.497325599000000063e-01,1.146865750999999933e-01
1.504025012000000106e-01,1.145896852999999938e-01
1.510724424999999871e-01,1.144952048999999944e-01
1.517423837999999914e-01,1.144032430999999961e-01
1.524123400000000073e-01,1.143133085000000021e-01
1.530822813999999921e-01,1.142244919999999969e-01
1.537522226999999964e-01,1.141358375999999980e-01
1.544221640000000006e-01,1.140465620000000041e-01
1.550921053000000049e-01,1.139562843999999964e-01
1.557620466000000092e-01,1.138650330999999988e-01
1.564320027999999974e-01,1.137731986000000001e-01
1.571019441000000016e-01,1.136814408999999998e-01
1.577718854000000059e-01,1.135905388999999960e-01
1.584418267000000102e-01,1.135011821999999948e-01
1.591117828999999984e-01,1.134137909999999999e-01
1.597817242000000026e-01,1.133284538000000063e-01
1.604516655000000069e-01,1.132449439000000058e-01
1.611216068000000112e-01,1.131629125000000041e-01
1.617915480999999878e-01,1.130818809999999952e-01
1.624615043000000036e-01,1.130013990999999968e-01
1.631314456000000079e-01,1.129212158999999965e-01
1.638013869999999927e-01,1.128412983000000036e-01
1.644713282999999970e-01,1.127619583000000064e-01
1.651412696000000013e-01,1.126836784999999952e-01
1.658112257999999894e-01,1.126069261000000044e-01
1.664811670999999937e-01,1.125318129999999944e-01
1.671511083999999980e-01,1.124579153999999970e-01
1.678210497000000023e-01,1.123842555999999965e-01
1.684909910000000066e-01,1.123095778999999989e-01
1.691609471999999947e-01,1.122326822000000029e-01
1.698308884999999990e-01,1.121527992000000001e-01
1.705008298000000033e-01,1.120698225999999936e-01
1.711707711000000076e-01,1.119844371000000005e-01
1.718407124000000119e-01,1.118979835000000062e-01
1.725106686000000000e-01,1.118121314999999949e-01
1.731806099000000043e-01,1.117284711000000041e-01
1.738505512000000086e-01,1.116482149999999951e-01
1.745204925999999934e-01,1.115717752999999951e-01
1.751904338999999977e-01,1.114988672000000042e-01
1.758603901000000136e-01,1.114287369000000055e-01
1.765303313999999901e-01,1.113603484000000032e-01
1.772002726999999944e-01,1.112926402999999953e-01
1.778702139999999987e-01,1.112246759999999945e-01
1.785401553000000030e-01,1.111558163999999960e-01
1.792101114999999911e-01,1.110858630000000069e-01
1.798800527999999954e-01,1.110151229999999933e-01
1.805499940999999997e-01,1.109444336000000031e-01
1.812199354000000040e-01,1.108749391999999945e-01
1.818898767000000083e-01,1.108078135000000047e-01
1.825598328999999964e-01,1.107438763999999964e-01
1.832297742000000007e-01,1.106833495999999945e-01
1.838997155000000050e-01,1.106257038999999970e-01
1.845696568000000093e-01,1.105696921999999999e-01
1.852395981999999941e-01,1.105136169000000002e-01
1.859095544000000100e-01,1.104557785000000042e-01
1.865794956999999865e-01,1.103948404999999938e-01
1.872494369999999908e-01,1.103301235000000019e-01
1.879193782999999951e-01,1.102616441999999947e-01
1.885893195999999994e-01,1.101901591000000041e-01
1.892592757999999875e-01,1.101168601000000052e-01
1.899292170999999918e-01,1.100431127999999953e-01
1.905991583999999961e-01,1.099700992000000044e-01
1.912690997000000004e-01,1.098986690999999988e-01
1.919390410000000047e-01,1.098291957000000069e-01
1.926089971999999928e-01,1.097617211999999953e-01
1.932789384999999971e-01,1.096958004000000014e-01
1.939488798000000014e-01,1.096314171999999976e-01
1.946188211000000057e-01,1.095680846000000042e-01
1.952887624999999905e-01,1.095051125000000014e-01
1.959587187000000064e-01,1.094426448000000024e-01
1.966286600000000107e-01,1.093805292000000068e-01
1.972986012999999872e-01,1.093186886000000052e-01
1.979685425999999915e-01,1.092571447999999973e-01
1.986384838999999958e-01,1.091959796000000066e-01
1.993084401000000117e-01,1.091352760999999977e-01
1.999783813999999882e-01,1.090750617999999977e-01
2.006483226999999925e-01,1.090152855999999976e-01
2.013182639999999968e-01,1.089558592999999992e-01
2.019882202000000126e-01,1.088966480999999931e-01
2.026581614999999892e-01,1.088375783000000013e-01
2.033281027999999935e-01,1.087785893000000059e-01
2.039980440999999978e-01,1.087196921000000011e-01
2.046679854000000021e-01,1.086608622999999940e-01
2.053379267000000064e-01,1.086021107999999985e-01
2.060078830000000027e-01,1.085434370000000065e-01
2.066778243000000070e-01,1.084848867000000050e-01
2.073477656000000113e-01,1.084265751999999999e-01
2.080177068999999879e-01,1.083685813000000026e-01
2.086876631000000037e-01,1.083110869000000059e-01
2.093576044000000080e-01,1.082540527000000058e-01
2.100275457000000123e-01,1.081975315999999937e-01
2.106974869999999889e-01,1.081414386999999949e-01
2.113674282999999932e-01,1.080856785000000042e-01
2.120373695999999974e-01,1.080301248000000020e-01
2.127073258000000133e-01,1.079747261999999958e-01
2.133772670999999899e-01,1.079194606999999972e-01
2.140472083999999942e-01,1.078643043999999995e-01
2.147171496999999984e-01,1.078092788000000052e-01
2.153871058999999866e-01,1.077543603999999988e-01
2.160570471999999909e-01,1.076995480000000061e-01
2.167269886000000034e-01,1.076448740999999959e-01
2.173969299000000077e-01,1.075903928999999981e-01
2.180668712000000120e-01,1.075362022000000001e-01
2.187368274000000001e-01,1.074823986000000009e-01
2.194067687000000044e-01,1.074290445999999954e-01
2.200767100000000087e-01,1.073761468999999968e-01
2.207466513000000130e-01,1.073236250000000058e-01
2.214165925999999895e-01,1.072713772000000038e-01
2.220865488000000054e-01,1.072193144000000015e-01
2.227564901000000097e-01,1.071673806000000007e-01
2.234264313999999862e-01,1.071155423000000051e-01
2.240963726999999905e-01,1.070638094000000012e-01
2.247663139999999948e-01,1.070121829000000024e-01
2.254362702000000107e-01,1.069606901000000054e-01
2.261062114999999872e-01,1.069093423000000015e-01
2.267761527999999915e-01,1.068581064999999941e-01
2.274460942000000041e-01,1.068070240000000004e-01
2.281160355000000084e-01,1.067561357999999988e-01
2.287859916999999965e-01,1.067054929000000041e-01
2.294559330000000008e-01,1.066551666999999981e-01
2.301258743000000051e-01,1.066051964999999990e-01
2.307958156000000094e-01,1.065555685999999974e-01
2.314657569000000137e-01,1.065062279999999945e-01
2.321357131000000018e-01,1.064570890999999991e-01
2.328056544000000061e-01,1.064080567999999977e-01
2.334755957000000104e-01,1.063590784999999955e-01
2.341455369999999869e-01,1.063101538999999957e-01
2.348154782999999912e-01,1.062612619000000008e-01
2.354854345000000071e-01,1.062124430999999980e-01
2.361553758000000114e-01,1.061636868000000039e-01
2.368253170999999879e-01,1.061149925000000049e-01
2.374952585000000005e-01,1.060663614000000032e-01
2.381651998000000048e-01,1.060178095999999986e-01
2.388351559999999929e-01,1.059693887000000001e-01
2.395050972999999972e-01,1.059211582000000040e-01
2.401750386000000015e-01,1.058732267999999976e-01
2.408449799000000058e-01,1.058256521999999950e-01
2.415149212000000101e-01,1.057784814999999934e-01
2.421848773999999982e-01,1.057317111000000004e-01
2.428548187000000025e-01,1.056852981999999996e-01
2.435247600000000068e-01,1.056391901000000022e-01
2.441947013000000111e-01,1.055932955000000034e-01
2.448646425999999876e-01,1.055475634000000024e-01
2.455345988000000035e-01,1.055019432999999979e-01
