x [m],Heat flux [MW/m^2]
1.213118085000000103e-03,1.443973283999999957e+01
1.213243812999999921e-03,1.426615501000000030e+01
1.213495502999999923e-03,1.411597225000000044e+01
1.213874434999999983e-03,1.395141738999999959e+01
1.214382703999999967e-03,1.378702827000000042e+01
1.215023453999999892e-03,1.362941183999999950e+01
1.215799479000000084e-03,1.347215830000000025e+01
1.216714969000000065e-03,1.330465762000000041e+01
1.217775162999999933e-03,1.312031288999999923e+01
1.218985766000000096e-03,1.291528077999999979e+01
1.220353063999999937e-03,1.268887233999999964e+01
1.221885206000000073e-03,1.243636234999999957e+01
1.223590923000000092e-03,1.215997961999999966e+01
1.225479762000000012e-03,1.185912689000000064e+01
1.227563014000000036e-03,1.153292223999999955e+01
1.229853020000000073e-03,1.118305430000000023e+01
1.232364214999999907e-03,1.080569372000000072e+01
1.235112081999999905e-03,1.040629277999999935e+01
1.238114433000000016e-03,9.980833506999999827e+00
1.241390942999999903e-03,9.531554763000000818e+00
1.244963379999999972e-03,9.064119804000000613e+00
1.248856541000000018e-03,8.568323827000000392e+00
1.253097784000000011e-03,8.060676231000000413e+00
1.257717144000000068e-03,7.532145209000000285e+00
1.262748614000000101e-03,6.989386577000000322e+00
1.268229913000000096e-03,6.441519429000000407e+00
1.274202834000000024e-03,5.878716629000000360e+00
1.280713244000000056e-03,5.345298940000000165e+00
1.287811319000000060e-03,4.789777221999999668e+00
1.295552473000000007e-03,4.225739707999999872e+00
1.303995958999999922e-03,3.658440371999999829e+00
1.313205225999999979e-03,3.297584029999999888e+00
1.323246397000000076e-03,2.699677271000000101e+00
1.334185945000000012e-03,2.312928900999999815e+00
1.345622120000000048e-03,1.943426292999999916e+00
1.357895670999999943e-03,1.740324103999999927e+00
1.371894963000000077e-03,1.592832916999999959e+00
1.387861673999999908e-03,1.471264085999999915e+00
1.406070542999999931e-03,1.366867014999999963e+00
1.426834263999999901e-03,1.274054000000000020e+00
1.450508833000000017e-03,1.190249982000000095e+00
1.477498560999999976e-03,1.112393519000000053e+00
1.508263405000000038e-03,1.039049611999999900e+00
1.543325139000000000e-03,9.701638339000000499e-01
1.583276317000000032e-03,9.057324358999999658e-01
1.628788887000000079e-03,8.456540944999999532e-01
1.680623973000000028e-03,7.897067926999999932e-01
1.739643047999999944e-03,7.376196492000000049e-01
1.806820044000000038e-03,6.889310334999999563e-01
1.883254154000000040e-03,6.442393688999999979e-01
1.970184733999999927e-03,6.025430306000000291e-01
2.069005743000000130e-03,5.648136831000000191e-01
2.181282965000000146e-03,5.300189129000000277e-01
2.308769384000000213e-03,4.996088718999999734e-01
2.453424268999999849e-03,4.644344946999999779e-01
2.617429475999999942e-03,4.705251663000000195e-01
2.803205512000000142e-03,4.278321586000000121e-01
3.013427835000000079e-03,4.020540693999999915e-01
3.251038725000000070e-03,3.798393767000000087e-01
3.519256598999999895e-03,3.615057702000000206e-01
3.821578109999999948e-03,3.444960060999999740e-01
4.161774646000000050e-03,3.295662967999999915e-01
4.543876740999999719e-03,3.138063822000000114e-01
4.972148220999999570e-03,3.057339977999999903e-01
5.451040808000000119e-03,2.913361235999999965e-01
5.985134746999999644e-03,2.798641210999999740e-01
6.579050793999999779e-03,2.703710913999999854e-01
7.237344514999999832e-03,2.609602994999999925e-01
7.964368910000000149e-03,2.515740141999999735e-01
8.764110505999999148e-03,2.424098332999999883e-01
9.640001691999999442e-03,2.333014784999999924e-01
1.059471071000000000e-02,2.241722892999999939e-01
1.162991485999999991e-02,2.155742244999999946e-01
1.274607143999999942e-02,2.063986686000000015e-01
1.394220068999999992e-02,1.985039500999999929e-01
1.521569396999999935e-02,1.897723667000000003e-01
1.656217314000000065e-02,1.825308086000000107e-01
1.797541044999999976e-02,1.742618066000000132e-01
1.944733783999999868e-02,1.677766940000000040e-01
2.096815594000000019e-02,1.610594053999999942e-01
2.252653054999999988e-02,1.553434046000000124e-01
2.410990186000000132e-02,1.494303301999999889e-01
2.570487185999999896e-02,1.458982846999999916e-01
2.729764021999999887e-02,1.425312601000000012e-01
2.887448482000000080e-02,1.402799479000000071e-01
3.042222559000000090e-02,1.395990058999999894e-01
3.192865848999999756e-02,1.407384097000000112e-01
3.338290378000000058e-02,1.436823532000000014e-01
3.477570041999999972e-02,1.473295813000000121e-01
3.609955311000000167e-02,1.513370491999999901e-01
3.734883293999999992e-02,1.547022808000000083e-01
3.851973264999999924e-02,1.575373533999999964e-01
3.961017727999999877e-02,1.595098631999999905e-01
4.061967134000000340e-02,1.607772051999999952e-01
4.154907911999999870e-02,1.614063047000000028e-01
4.240042715999999684e-02,1.617554140999999945e-01
4.317663983000000205e-02,1.619110784999999997e-01
4.388135298999999712e-02,1.618648820999999960e-01
4.455129801999999778e-02,1.618499814000000092e-01
4.522124304999999844e-02,1.616719614000000083e-01
4.589118435999999662e-02,1.614282345999999979e-01
4.656112938999999729e-02,1.611281243000000085e-01
4.723107441999999795e-02,1.607810460000000108e-01
4.790101944999999861e-02,1.603952254000000077e-01
4.857096449000000010e-02,1.599773941000000033e-01
4.924090578999999746e-02,1.595335374999999889e-01
4.991085081999999812e-02,1.590688821000000031e-01
5.058079584999999878e-02,1.585883614999999969e-01
5.125074089000000027e-02,1.580968199999999990e-01
5.192068592000000093e-02,1.575984944000000110e-01
5.259063095000000160e-02,1.570971878000000099e-01
5.326057224999999895e-02,1.565949352999999877e-01
5.393051729000000044e-02,1.560937786999999910e-01
5.460046232000000110e-02,1.555936531999999872e-01
5.527040735000000177e-02,1.550936266000000063e-01
5.594035238000000243e-02,1.545947625999999908e-01
5.661029369000000061e-02,1.540978491999999977e-01
5.728023872000000127e-02,1.536042640999999986e-01
5.795018375000000194e-02,1.531156281999999924e-01
5.862012878000000260e-02,1.526331813000000037e-01
5.929007381000000326e-02,1.521577105999999957e-01
5.996001512000000144e-02,1.516894433000000042e-01
6.062996015000000211e-02,1.512284522000000020e-01
6.129990518000000277e-02,1.507752645999999863e-01
6.196985021000000343e-02,1.503291992000000132e-01
6.263979524000000410e-02,1.498907096000000050e-01
6.330973654999999534e-02,1.494607585999999932e-01
6.397968531000000625e-02,1.490385297000000053e-01
6.464962660999999666e-02,1.486239041000000094e-01
6.531956792000000178e-02,1.482169064999999952e-01
6.598951667999999882e-02,1.478174130000000086e-01
6.665945798000000311e-02,1.474254078999999995e-01
6.732940674000000014e-02,1.470407737999999964e-01
6.799934804000000443e-02,1.466631332999999981e-01
6.866928934999999568e-02,1.462923257000000032e-01
6.933923811000000659e-02,1.459284650000000072e-01
7.000917940999999700e-02,1.455712244000000044e-01
7.067912816999999404e-02,1.452205088000000088e-01
7.134906947999999915e-02,1.448762272000000129e-01
7.201901078000000345e-02,1.445380158000000026e-01
7.268895954000000048e-02,1.442055318000000086e-01
7.335890085000000560e-02,1.438784060999999947e-01
7.402884960000000181e-02,1.435572663999999943e-01
7.469879091000000693e-02,1.432417578000000080e-01
7.536873966000000313e-02,1.429310813999999930e-01
7.603868096999999437e-02,1.426257770000000091e-01
7.670862227999999949e-02,1.423253965000000065e-01
7.737857102999999570e-02,1.420293913000000019e-01
7.804851234000000082e-02,1.417377412999999975e-01
7.871846109999999785e-02,1.414511628000000021e-01
7.938840240000000215e-02,1.411704997999999878e-01
8.005834370999999339e-02,1.408962065999999902e-01
8.072829247000000430e-02,1.406282580000000060e-01
8.139823376999999471e-02,1.403659659000000004e-01
8.206818253000000563e-02,1.401077944999999936e-01
8.273812382999999604e-02,1.398520107000000012e-01
8.340806514000000116e-02,1.395973567000000082e-01
8.407801389999999819e-02,1.393434325000000029e-01
8.474795520000000248e-02,1.390905622999999980e-01
8.541790395999999952e-02,1.388395544999999898e-01
8.608784527000000464e-02,1.385912344999999934e-01
8.675778656999999505e-02,1.383462481000000133e-01
8.742773533000000596e-02,1.381049205999999863e-01
8.809767662999999638e-02,1.378672496999999997e-01
8.876762538999999341e-02,1.376330575999999972e-01
8.943756669999999853e-02,1.374019153999999909e-01
9.010750800000000282e-02,1.371733267999999950e-01
9.077745675999999986e-02,1.369468098999999939e-01
9.144739807000000498e-02,1.367220818000000060e-01
9.211734682000000118e-02,1.364989463999999875e-01
9.278728813000000630e-02,1.362772650000000085e-01
9.345722943999999754e-02,1.360574578000000034e-01
9.412717818999999375e-02,1.358396907999999959e-01
9.479711949999999887e-02,1.356252052999999957e-01
9.546706824999999508e-02,1.354153600999999929e-01
9.613700956000000020e-02,1.352097570000000137e-01
9.680695087000000532e-02,1.350078594000000132e-01
9.747689962000000152e-02,1.348088731000000040e-01
9.814684093000000664e-02,1.346120379999999894e-01
9.881678969000000368e-02,1.344165901999999913e-01
9.948673098999999409e-02,1.342227437000000079e-01
1.001566722999999992e-01,1.340302141999999974e-01
1.008266210999999996e-01,1.338385682000000076e-01
1.014965624000000038e-01,1.336486678999999900e-01
1.021665110999999959e-01,1.334608919999999976e-01
1.028364524000000002e-01,1.332755392999999955e-01
1.035063937000000045e-01,1.330926790999999998e-01
1.041763425000000048e-01,1.329122403999999924e-01
1.048462837999999953e-01,1.327340154999999966e-01
1.055162325999999956e-01,1.325577908999999999e-01
1.061861738999999999e-01,1.323834603000000054e-01
1.068561226000000058e-01,1.322109884999999874e-01
1.075260638999999963e-01,1.320404078000000092e-01
1.081960052000000005e-01,1.318717167000000023e-01
1.088659540000000009e-01,1.317048024999999956e-01
1.095358953000000052e-01,1.315395666999999991e-01
1.102058439999999973e-01,1.313758254000000070e-01
1.108757853999999959e-01,1.312139539999999938e-01
1.115457267000000002e-01,1.310531620000000008e-01
1.122156754000000062e-01,1.308950207000000032e-01
1.128856166999999966e-01,1.307397717999999875e-01
1.135555654999999969e-01,1.305863651999999986e-01
1.142255068000000012e-01,1.304297313999999985e-01
1.148954481000000055e-01,1.302912183000000113e-01
1.155653967999999976e-01,1.301198557000000089e-01
1.162353381999999963e-01,1.299887104000000126e-01
1.169052869000000022e-01,1.298406810999999939e-01
1.175752282000000065e-01,1.296960520000000061e-01
1.182451694999999969e-01,1.295537247999999919e-01
1.189151182999999973e-01,1.294130927999999903e-01
1.195850596000000016e-01,1.292738447000000013e-01
1.202550082999999936e-01,1.291356867000000019e-01
1.209249495999999979e-01,1.289983413000000134e-01
1.215948909999999966e-01,1.288616362999999987e-01
1.222648397000000026e-01,1.287255811000000139e-01
1.229347810000000069e-01,1.285903610999999946e-01
1.236047297999999933e-01,1.284563629000000096e-01
1.242746710999999976e-01,1.283240035999999862e-01
1.249446124000000019e-01,1.281936911999999873e-01
1.256145536999999923e-01,1.280656428999999985e-01
1.262845099000000082e-01,1.279398985999999905e-01
1.269544512000000125e-01,1.278162415999999912e-01
1.276243924999999890e-01,1.276943080999999869e-01
1.282943337999999933e-01,1.275736856999999946e-01
1.289642750999999976e-01,1.274540638999999975e-01
1.296342313000000135e-01,1.273352878000000021e-01
1.303041725999999900e-01,1.272173903999999911e-01
1.309741138999999943e-01,1.271005149999999972e-01
1.316440551999999986e-01,1.269847011999999942e-01
1.323139966000000112e-01,1.268698957000000127e-01
1.329839527999999993e-01,1.267558750999999984e-01
1.336538941000000036e-01,1.266423748999999932e-01
1.343238354000000079e-01,1.265291896000000083e-01
1.349937767000000122e-01,1.264162430000000115e-01
1.356637179999999887e-01,1.263036295999999947e-01
1.363336742000000046e-01,1.261915389999999915e-01
1.370036155000000089e-01,1.260802188000000046e-01
1.376735568000000132e-01,1.259698680999999931e-01
1.383434980999999897e-01,1.258605691000000137e-01
1.390134393999999940e-01,1.257524533999999916e-01
1.396833956000000099e-01,1.256453489000000090e-01
1.403533368999999864e-01,1.255392238999999965e-01
1.410232781999999907e-01,1.254339019000000055e-01
1.416932194999999950e-01,1.253292864999999978e-01
1.423631607999999993e-01,1.252253929000000099e-01
1.430331170999999957e-01,1.251222533999999942e-01
1.437030584000000000e-01,1.250199412000000121e-01
1.443729997000000043e-01,1.249185203999999966e-01
1.450429410000000086e-01,1.248179945999999957e-01
1.457128971999999967e-01,1.247183186999999971e-01
1.463828385000000010e-01,1.246194067999999988e-01
1.470527798000000053e-01,1.245211090000000048e-01
1.477227211000000096e-01,1.244235068999999944e-01
1.483926624000000138e-01,1.243262088000000043e-01
1.490626036999999904e-01,1.242294617000000018e-01
1.497325599000000063e-01,1.241337817999999954e-01
1.504025012000000106e-01,1.240387777000000052e-01
1.510724424999999871e-01,1.239444890000000049e-01
1.517423837999999914e-01,1.238509369999999943e-01
1.524123400000000073e-01,1.237580808000000032e-01
1.530822813999999921e-01,1.236658246000000017e-01
1.537522226999999964e-01,1.235740978000000045e-01
1.544221640000000006e-01,1.234828778000000016e-01
1.550921053000000049e-01,1.233921736999999963e-01
1.557620466000000092e-01,1.233020563000000042e-01
1.564320027999999974e-01,1.232125565000000006e-01
1.571019441000000016e-01,1.231237124999999960e-01
1.577718854000000059e-01,1.230355389999999993e-01
1.584418267000000102e-01,1.229480272999999985e-01
1.591117828999999984e-01,1.228611540999999946e-01
1.597817242000000026e-01,1.227748508000000016e-01
1.604516655000000069e-01,1.226890134999999993e-01
1.611216068000000112e-01,1.226036046999999934e-01
1.617915480999999878e-01,1.225186048999999944e-01
1.624615043000000036e-01,1.224340537000000034e-01
1.631314456000000079e-01,1.223500121000000024e-01
1.638013869999999927e-01,1.222665401000000013e-01
1.644713282999999970e-01,1.221836674999999955e-01
1.651412696000000013e-01,1.221014088000000053e-01
1.658112257999999894e-01,1.220197348999999959e-01
1.664811670999999937e-01,1.219385805999999989e-01
1.671511083999999980e-01,1.218578891999999997e-01
1.678210497000000023e-01,1.217775688999999939e-01
1.684909910000000066e-01,1.216975723000000009e-01
1.691609471999999947e-01,1.216179384000000002e-01
1.698308884999999990e-01,1.215387054999999966e-01
1.705008298000000033e-01,1.214599819999999941e-01
1.711707711000000076e-01,1.213817761000000051e-01
1.718407124000000119e-01,1.213040957999999975e-01
1.725106686000000000e-01,1.212269489000000061e-01
1.731806099000000043e-01,1.211501491000000069e-01
1.738505512000000086e-01,1.210740512999999990e-01
1.745204925999999934e-01,1.209984409000000039e-01
1.751904338999999977e-01,1.209228717999999980e-01
1.758603901000000136e-01,1.208476863000000068e-01
1.765303313999999901e-01,1.207728802000000018e-01
1.772002726999999944e-01,1.206984083000000041e-01
1.778702139999999987e-01,1.206243345999999939e-01
1.785401553000000030e-01,1.205506816999999953e-01
1.792101114999999911e-01,1.204774583000000066e-01
1.798800527999999954e-01,1.204046730000000037e-01
1.805499940999999997e-01,1.203323210000000060e-01
1.812199354000000040e-01,1.202604240999999990e-01
1.818898767000000083e-01,1.201889507000000051e-01
1.825598328999999964e-01,1.201178697000000045e-01
1.832297742000000007e-01,1.200470978000000022e-01
1.838997155000000050e-01,1.199765923000000040e-01
1.845696568000000093e-01,1.199063503000000058e-01
1.852395981999999941e-01,1.198364601000000002e-01
1.859095544000000100e-01,1.197669697999999977e-01
1.865794956999999865e-01,1.196978890999999962e-01
1.872494369999999908e-01,1.196291728000000026e-01
1.879193782999999951e-01,1.195606768999999958e-01
1.885893195999999994e-01,1.194922325999999979e-01
1.892592757999999875e-01,1.194238012999999932e-01
1.899292170999999918e-01,1.193555097999999953e-01
1.905991583999999961e-01,1.192877616000000002e-01
1.912690997000000004e-01,1.192211439000000067e-01
1.919390410000000047e-01,1.191563991000000045e-01
1.926089971999999928e-01,1.190940961000000048e-01
1.932789384999999971e-01,1.190345592000000008e-01
1.939488798000000014e-01,1.189776726999999951e-01
1.946188211000000057e-01,1.189227397000000019e-01
1.952887624999999905e-01,1.188685911999999983e-01
1.959587187000000064e-01,1.188137789000000000e-01
1.966286600000000107e-01,1.187568984000000050e-01
1.972986012999999872e-01,1.186969927000000036e-01
1.979685425999999915e-01,1.186336171999999994e-01
1.986384838999999958e-01,1.185669891000000059e-01
1.993084401000000117e-01,1.184978081999999988e-01
1.999783813999999882e-01,1.184270508999999971e-01
2.006483226999999925e-01,1.183557922000000040e-01
2.013182639999999968e-01,1.182849717999999994e-01
2.019882202000000126e-01,1.182153140000000019e-01
2.026581614999999892e-01,1.181472357000000056e-01
2.033281027999999935e-01,1.180808755000000015e-01
2.039980440999999978e-01,1.180161457000000053e-01
2.046679854000000021e-01,1.179528180000000009e-01
2.053379267000000064e-01,1.178905967999999971e-01
2.060078830000000027e-01,1.178292135000000018e-01
2.066778243000000070e-01,1.177684499999999967e-01
2.073477656000000113e-01,1.177081720999999942e-01
2.080177068999999879e-01,1.176482593999999965e-01
2.086876631000000037e-01,1.175887082000000028e-01
2.093576044000000080e-01,1.175293652999999938e-01
2.100275457000000123e-01,1.174702516000000058e-01
2.106974869999999889e-01,1.174112734000000019e-01
2.113674282999999932e-01,1.173524066000000005e-01
2.120373695999999974e-01,1.172936854000000001e-01
2.127073258000000133e-01,1.172351286999999964e-01
2.133772670999999899e-01,1.171767588999999971e-01
2.140472083999999942e-01,1.171185852999999943e-01
2.147171496999999984e-01,1.170605725999999958e-01
2.153871058999999866e-01,1.170027190999999994e-01
2.160570471999999909e-01,1.169449786999999935e-01
2.167269886000000034e-01,1.168873504000000063e-01
2.173969299000000077e-01,1.168298110000000056e-01
2.180668712000000120e-01,1.167723373999999953e-01
2.187368274000000001e-01,1.167149071000000010e-01
2.194067687000000044e-01,1.166574316999999944e-01
2.200767100000000087e-01,1.165998787000000064e-01
2.207466513000000130e-01,1.165422160000000040e-01
2.214165925999999895e-01,1.164844990000000052e-01
2.220865488000000054e-01,1.164268804999999962e-01
2.227564901000000097e-01,1.163695435000000056e-01
2.234264313999999862e-01,1.163127448000000064e-01
2.240963726999999905e-01,1.162566948000000044e-01
2.247663139999999948e-01,1.162015274999999986e-01
2.254362702000000107e-01,1.161472860999999968e-01
2.261062114999999872e-01,1.160938571000000030e-01
2.267761527999999915e-01,1.160409777000000059e-01
2.274460942000000041e-01,1.159883461999999948e-01
2.281160355000000084e-01,1.159356113999999993e-01
2.287859916999999965e-01,1.158825210999999966e-01
2.294559330000000008e-01,1.158289312999999932e-01
2.301258743000000051e-01,1.157748356999999950e-01
2.307958156000000094e-01,1.157204270000000007e-01
2.314657569000000137e-01,1.156659684999999937e-01
2.321357131000000018e-01,1.156117930999999988e-01
2.328056544000000061e-01,1.155582197000000061e-01
2.334755957000000104e-01,1.155054704000000043e-01
2.341455369999999869e-01,1.154536515000000041e-01
2.348154782999999912e-01,1.154027138999999952e-01
2.354854345000000071e-01,1.153525373999999964e-01
2.361553758000000114e-01,1.153029418000000028e-01
2.368253170999999879e-01,1.152537082999999934e-01
2.374952585000000005e-01,1.152046419999999960e-01
2.381651998000000048e-01,1.151556378999999963e-01
2.388351559999999929e-01,1.151066055999999949e-01
2.395050972999999972e-01,1.150574850999999954e-01
2.401750386000000015e-01,1.150082669000000030e-01
2.408449799000000058e-01,1.149589518999999949e-01
2.415149212000000101e-01,1.149095308000000065e-01
2.421848773999999982e-01,1.148600345999999939e-01
2.428548187000000025e-01,1.148105234000000030e-01
2.435247600000000068e-01,1.147610369000000019e-01
2.441947013000000111e-01,1.147116539999999962e-01
2.448646425999999876e-01,1.146624032999999931e-01
2.455345988000000035e-01,1.146133133999999998e-01
