x [m],Pressure [kPa]
1.213118085000000103e-03,9.896127694000000474e+01
1.213243812999999921e-03,9.885713832000000423e+01
1.213495502999999923e-03,9.837320096999999919e+01
1.213874434999999983e-03,9.772259515000000363e+01
1.214382703999999967e-03,9.685465390999999613e+01
1.215023453999999892e-03,9.581608156000000065e+01
1.215799479000000084e-03,9.458970936000000052e+01
1.216714969000000065e-03,9.316840820000000178e+01
1.217775162999999933e-03,9.155211201999999560e+01
1.218985766000000096e-03,8.973454241999999681e+01
1.220353063999999937e-03,8.771884803999999747e+01
1.221885206000000073e-03,8.549229821999999501e+01
1.223590923000000092e-03,8.307546417000000361e+01
1.225479762000000012e-03,8.045548304999999800e+01
1.227563014000000036e-03,7.763941142000000184e+01
1.229853020000000073e-03,7.463725085999999465e+01
1.232364214999999907e-03,7.143818822999999441e+01
1.235112081999999905e-03,6.808359179999999355e+01
1.238114433000000016e-03,6.454458746999999619e+01
1.241390942999999903e-03,6.086751641000000035e+01
1.244963379999999972e-03,5.706386538000000286e+01
1.248856541000000018e-03,5.311967406000000125e+01
1.253097784000000011e-03,4.912272509000000298e+01
1.257717144000000068e-03,4.503327568000000269e+01
1.262748614000000101e-03,4.093987836000000158e+01
1.268229913000000096e-03,3.687695865999999967e+01
1.274202834000000024e-03,3.290207333000000034e+01
1.280713244000000056e-03,2.905470353000000117e+01
1.287811319000000060e-03,2.520547922000000085e+01
1.295552473000000007e-03,2.153032676999999850e+01
1.303995958999999922e-03,1.789433598000000103e+01
1.313205225999999979e-03,1.549749964999999996e+01
1.323246397000000076e-03,1.224477178999999971e+01
1.334185945000000012e-03,9.711306684000000189e+00
1.345622120000000048e-03,8.290620488000000066e+00
1.357895670999999943e-03,7.706622527999999583e+00
1.371894963000000077e-03,7.199838007000000317e+00
1.387861673999999908e-03,6.762575248000000094e+00
1.406070542999999931e-03,6.370264236999999774e+00
1.426834263999999901e-03,6.006810923999999829e+00
1.450508833000000017e-03,5.662463254000000390e+00
1.477498560999999976e-03,5.328913308999999821e+00
1.508263405000000038e-03,5.004441710000000043e+00
1.543325139000000000e-03,4.691795627000000302e+00
1.583276317000000032e-03,4.393373023999999738e+00
1.628788887000000079e-03,4.110084470000000323e+00
1.680623973000000028e-03,3.841356985000000002e+00
1.739643047999999944e-03,3.588255744000000025e+00
1.806820044000000038e-03,3.350486438999999983e+00
1.883254154000000040e-03,3.131335850000000143e+00
1.970184733999999927e-03,2.929272930000000219e+00
2.069005743000000130e-03,2.748853510000000000e+00
2.181282965000000146e-03,2.581882349999999882e+00
2.308769384000000213e-03,2.445506406999999882e+00
2.453424268999999849e-03,2.298137817999999832e+00
2.617429475999999942e-03,2.227240328000000158e+00
2.803205512000000142e-03,2.125387214999999941e+00
3.013427835000000079e-03,2.039633183999999932e+00
3.251038725000000070e-03,1.970097596000000006e+00
3.519256598999999895e-03,1.923172695000000099e+00
3.821578109999999948e-03,1.879751479999999919e+00
4.161774646000000050e-03,1.861184214999999975e+00
4.543876740999999719e-03,1.837260257999999924e+00
4.972148220999999570e-03,1.841096010000000005e+00
5.451040808000000119e-03,1.844190663000000008e+00
5.985134746999999644e-03,1.856888534000000091e+00
6.579050793999999779e-03,1.876395623999999929e+00
7.237344514999999832e-03,1.900900760999999939e+00
7.964368910000000149e-03,1.929233320000000029e+00
8.764110505999999148e-03,1.958844406000000093e+00
9.640001691999999442e-03,1.988138141999999942e+00
1.059471071000000000e-02,2.014877499999999877e+00
1.162991485999999991e-02,2.040858897000000116e+00
1.274607143999999942e-02,2.060184317000000043e+00
1.394220068999999992e-02,2.079325494999999968e+00
1.521569396999999935e-02,2.089568494999999970e+00
1.656217314000000065e-02,2.101793110000000020e+00
1.797541044999999976e-02,2.104376602999999957e+00
1.944733783999999868e-02,2.107994418000000092e+00
2.096815594000000019e-02,2.108306535000000093e+00
2.252653054999999988e-02,2.108822180000000213e+00
2.410990186000000132e-02,2.104380556999999818e+00
2.570487185999999896e-02,2.102711171000000157e+00
2.729764021999999887e-02,2.100147787000000044e+00
2.887448482000000080e-02,2.097573639999999795e+00
3.042222559000000090e-02,2.094971727999999977e+00
3.192865848999999756e-02,2.092511978000000106e+00
3.338290378000000058e-02,2.090412394999999979e+00
3.477570041999999972e-02,2.088919046000000002e+00
3.609955311000000167e-02,2.088839532000000165e+00
3.734883293999999992e-02,2.089923338000000186e+00
3.851973264999999924e-02,2.092488358999999853e+00
3.961017727999999877e-02,2.096245591000000186e+00
4.061967134000000340e-02,2.100237347000000199e+00
4.154907911999999870e-02,2.104870570000000107e+00
4.240042715999999684e-02,2.108743279000000026e+00
4.317663983000000205e-02,2.113455217999999913e+00
4.388135298999999712e-02,2.116750756000000067e+00
4.455129801999999778e-02,2.120089484999999829e+00
4.522124304999999844e-02,2.123138358999999920e+00
4.589118435999999662e-02,2.125975363999999868e+00
4.656112938999999729e-02,2.128573198999999860e+00
4.723107441999999795e-02,2.130894914000000195e+00
4.790101944999999861e-02,2.132921227000000197e+00
4.857096449000000010e-02,2.134657341000000041e+00
4.924090578999999746e-02,2.136127221000000187e+00
4.991085081999999812e-02,2.137339111999999819e+00
5.058079584999999878e-02,2.138310214000000098e+00
5.125074089000000027e-02,2.139078618000000098e+00
5.192068592000000093e-02,2.139683562000000094e+00
5.259063095000000160e-02,2.140159401000000017e+00
5.326057224999999895e-02,2.140522386999999860e+00
5.393051729000000044e-02,2.140778844999999819e+00
5.460046232000000110e-02,2.140914994000000071e+00
5.527040735000000177e-02,2.140922854999999903e+00
5.594035238000000243e-02,2.140803657000000193e+00
5.661029369000000061e-02,2.140575630999999923e+00
5.728023872000000127e-02,2.140264439000000074e+00
5.795018375000000194e-02,2.139893564999999942e+00
5.862012878000000260e-02,2.139481543000000041e+00
5.929007381000000326e-02,2.139035520000000190e+00
5.996001512000000144e-02,2.138563587000000155e+00
6.062996015000000211e-02,2.138064890999999967e+00
6.129990518000000277e-02,2.137543551999999902e+00
6.196985021000000343e-02,2.137008407000000165e+00
6.263979524000000410e-02,2.136460500000000096e+00
6.330973654999999534e-02,2.135908032000000123e+00
6.397968531000000625e-02,2.135354098000000089e+00
6.464962660999999666e-02,2.134795523000000195e+00
6.531956792000000178e-02,2.134236802999999849e+00
6.598951667999999882e-02,2.133677357999999913e+00
6.665945798000000311e-02,2.133115800000000117e+00
6.732940674000000014e-02,2.132556553000000132e+00
6.799934804000000443e-02,2.131999824000000210e+00
6.866928934999999568e-02,2.131445405000000015e+00
6.933923811000000659e-02,2.130898959000000037e+00
7.000917940999999700e-02,2.130358103999999919e+00
7.067912816999999404e-02,2.129816776000000189e+00
7.134906947999999915e-02,2.129279372000000059e+00
7.201901078000000345e-02,2.128747231999999823e+00
7.268895954000000048e-02,2.128214336000000095e+00
7.335890085000000560e-02,2.127683295999999835e+00
7.402884960000000181e-02,2.127157389000000176e+00
7.469879091000000693e-02,2.126629879999999861e+00
7.536873966000000313e-02,2.126103320999999990e+00
7.603868096999999437e-02,2.125597636000000179e+00
7.670862227999999949e-02,2.125130428999999932e+00
7.737857102999999570e-02,2.124703639999999893e+00
7.804851234000000082e-02,2.124315261000000010e+00
7.871846109999999785e-02,2.123959972999999835e+00
7.938840240000000215e-02,2.123612590000000022e+00
8.005834370999999339e-02,2.123240722999999885e+00
8.072829247000000430e-02,2.122833705000000126e+00
8.139823376999999471e-02,2.122399167000000197e+00
8.206818253000000563e-02,2.121946321999999885e+00
8.273812382999999604e-02,2.121483404000000128e+00
8.340806514000000116e-02,2.121022239000000198e+00
8.407801389999999819e-02,2.120578116999999985e+00
8.474795520000000248e-02,2.120159579000000072e+00
8.541790395999999952e-02,2.119760916000000162e+00
8.608784527000000464e-02,2.119369781000000064e+00
8.675778656999999505e-02,2.118980966000000077e+00
8.742773533000000596e-02,2.118598765000000217e+00
8.809767662999999638e-02,2.118225175000000071e+00
8.876762538999999341e-02,2.117855302999999800e+00
8.943756669999999853e-02,2.117480801000000135e+00
9.010750800000000282e-02,2.117100719999999825e+00
9.077745675999999986e-02,2.116720609000000142e+00
9.144739807000000498e-02,2.116345036999999873e+00
9.211734682000000118e-02,2.115969370000000183e+00
9.278728813000000630e-02,2.115581565999999913e+00
9.345722943999999754e-02,2.115179846000000197e+00
9.412717818999999375e-02,2.114774385000000034e+00
9.479711949999999887e-02,2.114374660000000183e+00
9.546706824999999508e-02,2.113981137000000121e+00
9.613700956000000020e-02,2.113586002999999991e+00
9.680695087000000532e-02,2.113184985000000182e+00
9.747689962000000152e-02,2.112784813999999844e+00
9.814684093000000664e-02,2.112396475999999801e+00
9.881678969000000368e-02,2.112022608000000190e+00
9.948673098999999409e-02,2.111652628999999948e+00
1.001566722999999992e-01,2.111273225000000142e+00
1.008266210999999996e-01,2.110881194000000072e+00
1.014965624000000038e-01,2.110490416999999841e+00
1.021665110999999959e-01,2.110123313999999972e+00
1.028364524000000002e-01,2.109798587999999864e+00
1.035063937000000045e-01,2.109522193000000101e+00
1.041763425000000048e-01,2.109285370999999909e+00
1.048462837999999953e-01,2.109069470000000113e+00
1.055162325999999956e-01,2.108853078000000103e+00
1.061861738999999999e-01,2.108617816000000200e+00
1.068561226000000058e-01,2.108350573000000061e+00
1.075260638999999963e-01,2.108044884999999979e+00
1.081960052000000005e-01,2.107701296000000113e+00
1.088659540000000009e-01,2.107328685999999784e+00
1.095358953000000052e-01,2.106941087000000046e+00
1.102058439999999973e-01,2.106560432000000205e+00
1.108757853999999959e-01,2.106197882000000021e+00
1.115457267000000002e-01,2.105869927000000086e+00
1.122156754000000062e-01,2.105570378999999992e+00
1.128856166999999966e-01,2.105298218999999804e+00
1.135555654999999969e-01,2.105009581000000018e+00
1.142255068000000012e-01,2.104779081999999857e+00
1.148954481000000055e-01,2.104454613000000140e+00
1.155653967999999976e-01,2.104226557000000053e+00
1.162353381999999963e-01,2.103980914000000091e+00
1.169052869000000022e-01,2.103741814999999793e+00
1.175752282000000065e-01,2.103495448999999962e+00
1.182451694999999969e-01,2.103228312000000155e+00
1.189151182999999973e-01,2.102934380000000214e+00
1.195850596000000016e-01,2.102620448999999780e+00
1.202550082999999936e-01,2.102302923999999962e+00
1.209249495999999979e-01,2.102002865999999859e+00
1.215948909999999966e-01,2.101737442000000122e+00
1.222648397000000026e-01,2.101515537000000045e+00
1.229347810000000069e-01,2.101335978999999909e+00
1.236047297999999933e-01,2.101189795999999887e+00
1.242746710999999976e-01,2.101062574000000183e+00
1.249446124000000019e-01,2.100940813999999879e+00
1.256145536999999923e-01,2.100816274000000039e+00
1.262845099000000082e-01,2.100686006000000106e+00
1.269544512000000125e-01,2.100549498999999987e+00
1.276243924999999890e-01,2.100406110000000215e+00
1.282943337999999933e-01,2.100254173999999807e+00
1.289642750999999976e-01,2.100093676999999825e+00
1.296342313000000135e-01,2.099924457999999827e+00
1.303041725999999900e-01,2.099748690999999834e+00
1.309741138999999943e-01,2.099573417000000219e+00
1.316440551999999986e-01,2.099402806000000066e+00
1.323139966000000112e-01,2.099237076000000091e+00
1.329839527999999993e-01,2.099071448000000117e+00
1.336538941000000036e-01,2.098899397999999916e+00
1.343238354000000079e-01,2.098715379999999797e+00
1.349937767000000122e-01,2.098518444999999844e+00
1.356637179999999887e-01,2.098312282999999834e+00
1.363336742000000046e-01,2.098104113000000215e+00
1.370036155000000089e-01,2.097903237000000143e+00
1.376735568000000132e-01,2.097718769000000094e+00
1.383434980999999897e-01,2.097556496000000159e+00
1.390134393999999940e-01,2.097416513000000204e+00
1.396833956000000099e-01,2.097294286999999979e+00
1.403533368999999864e-01,2.097183355999999943e+00
1.410232781999999907e-01,2.097076302000000059e+00
1.416932194999999950e-01,2.096970391999999794e+00
1.423631607999999993e-01,2.096866281000000054e+00
1.430331170999999957e-01,2.096766586000000210e+00
1.437030584000000000e-01,2.096674152999999929e+00
1.443729997000000043e-01,2.096589664000000131e+00
1.450429410000000086e-01,2.096508308999999848e+00
1.457128971999999967e-01,2.096418728000000176e+00
1.463828385000000010e-01,2.096308346999999905e+00
1.470527798000000053e-01,2.096169070999999828e+00
1.477227211000000096e-01,2.096001681000000172e+00
1.483926624000000138e-01,2.095815625000000182e+00
1.490626036999999904e-01,2.095627173000000010e+00
1.497325599000000063e-01,2.095455089000000104e+00
1.504025012000000106e-01,2.095315030000000078e+00
1.510724424999999871e-01,2.095213468999999940e+00
1.517423837999999914e-01,2.095145277999999944e+00
1.524123400000000073e-01,2.095094723999999964e+00
1.530822813999999921e-01,2.095042380999999843e+00
1.537522226999999964e-01,2.094970281999999795e+00
1.544221640000000006e-01,2.094868616999999933e+00
1.550921053000000049e-01,2.094735083000000220e+00
1.557620466000000092e-01,2.094575686999999853e+00
1.564320027999999974e-01,2.094402147999999908e+00
1.571019441000000016e-01,2.094229368000000147e+00
1.577718854000000059e-01,2.094072467000000159e+00
1.584418267000000102e-01,2.093941773000000062e+00
1.591117828999999984e-01,2.093841241999999880e+00
1.597817242000000026e-01,2.093768598000000036e+00
1.604516655000000069e-01,2.093716634000000187e+00
1.611216068000000112e-01,2.093677104000000178e+00
1.617915480999999878e-01,2.093640478000000194e+00
1.624615043000000036e-01,2.093599954000000096e+00
1.631314456000000079e-01,2.093553027000000011e+00
1.638013869999999927e-01,2.093503704999999826e+00
1.644713282999999970e-01,2.093460546000000200e+00
1.651412696000000013e-01,2.093434036000000109e+00
1.658112257999999894e-01,2.093430823999999912e+00
1.664811670999999937e-01,2.093447220999999914e+00
1.671511083999999980e-01,2.093468926999999979e+00
1.678210497000000023e-01,2.093472391999999793e+00
1.684909910000000066e-01,2.093432861000000145e+00
1.691609471999999947e-01,2.093330685000000191e+00
1.698308884999999990e-01,2.093159232000000092e+00
1.705008298000000033e-01,2.092926218000000116e+00
1.711707711000000076e-01,2.092654061999999815e+00
1.718407124000000119e-01,2.092374765000000192e+00
1.725106686000000000e-01,2.092121584000000034e+00
1.731806099000000043e-01,2.091920915000000214e+00
1.738505512000000086e-01,2.091787205000000149e+00
1.745204925999999934e-01,2.091719895000000218e+00
1.751904338999999977e-01,2.091706319000000036e+00
1.758603901000000136e-01,2.091725606999999876e+00
1.765303313999999901e-01,2.091755483000000027e+00
1.772002726999999944e-01,2.091775723000000031e+00
1.778702139999999987e-01,2.091771518999999913e+00
1.785401553000000030e-01,2.091736351000000216e+00
1.792101114999999911e-01,2.091672682000000005e+00
1.798800527999999954e-01,2.091594106000000064e+00
1.805499940999999997e-01,2.091522197999999833e+00
1.812199354000000040e-01,2.091480735999999840e+00
1.818898767000000083e-01,2.091490418999999878e+00
1.825598328999999964e-01,2.091560866000000019e+00
1.832297742000000007e-01,2.091687064999999901e+00
1.838997155000000050e-01,2.091849235999999834e+00
1.845696568000000093e-01,2.092015776000000216e+00
1.852395981999999941e-01,2.092151646000000031e+00
1.859095544000000100e-01,2.092226593999999995e+00
1.865794956999999865e-01,2.092221572000000140e+00
1.872494369999999908e-01,2.092133802000000209e+00
1.879193782999999951e-01,2.091974245999999926e+00
1.885893195999999994e-01,2.091765178999999808e+00
1.892592757999999875e-01,2.091534359000000176e+00
1.899292170999999918e-01,2.091308162999999887e+00
1.905991583999999961e-01,2.091106223999999791e+00
1.912690997000000004e-01,2.090938991999999885e+00
1.919390410000000047e-01,2.090807681999999890e+00
1.926089971999999928e-01,2.090707592999999864e+00
1.932789384999999971e-01,2.090630551999999920e+00
1.939488798000000014e-01,2.090567334000000166e+00
1.946188211000000057e-01,2.090512534999999783e+00
1.952887624999999905e-01,2.090460440999999836e+00
1.959587187000000064e-01,2.090407158000000098e+00
1.966286600000000107e-01,2.090352114999999955e+00
1.972986012999999872e-01,2.090295908999999952e+00
1.979685425999999915e-01,2.090240276999999924e+00
1.986384838999999958e-01,2.090187307999999966e+00
1.993084401000000117e-01,2.090137923999999980e+00
1.999783813999999882e-01,2.090092288000000131e+00
2.006483226999999925e-01,2.090048657000000087e+00
2.013182639999999968e-01,2.090004752000000021e+00
2.019882202000000126e-01,2.089958321000000119e+00
2.026581614999999892e-01,2.089908268999999930e+00
2.033281027999999935e-01,2.089854447000000004e+00
2.039980440999999978e-01,2.089796891999999850e+00
2.046679854000000021e-01,2.089735823999999909e+00
2.053379267000000064e-01,2.089671276999999883e+00
2.060078830000000027e-01,2.089603839000000018e+00
2.066778243000000070e-01,2.089535188999999793e+00
2.073477656000000113e-01,2.089467711999999811e+00
2.080177068999999879e-01,2.089403949999999899e+00
2.086876631000000037e-01,2.089345502000000021e+00
2.093576044000000080e-01,2.089292495000000027e+00
2.100275457000000123e-01,2.089243799000000124e+00
2.106974869999999889e-01,2.089197389999999821e+00
2.113674282999999932e-01,2.089151275999999946e+00
2.120373695999999974e-01,2.089103482000000067e+00
2.127073258000000133e-01,2.089053498999999814e+00
2.133772670999999899e-01,2.089000989000000086e+00
2.140472083999999942e-01,2.088946328000000019e+00
2.147171496999999984e-01,2.088889535999999936e+00
2.153871058999999866e-01,2.088830456000000169e+00
2.160570471999999909e-01,2.088769291999999833e+00
2.167269886000000034e-01,2.088707276000000057e+00
2.173969299000000077e-01,2.088645818999999904e+00
2.180668712000000120e-01,2.088587519999999920e+00
2.187368274000000001e-01,2.088533737000000112e+00
2.194067687000000044e-01,2.088485120000000084e+00
2.200767100000000087e-01,2.088440413999999912e+00
2.207466513000000130e-01,2.088397698000000080e+00
2.214165925999999895e-01,2.088354900000000125e+00
2.220865488000000054e-01,2.088310649999999935e+00
2.227564901000000097e-01,2.088263943999999928e+00
2.234264313999999862e-01,2.088214976000000167e+00
2.240963726999999905e-01,2.088164270000000045e+00
2.247663139999999948e-01,2.088112007999999964e+00
2.254362702000000107e-01,2.088058547000000154e+00
2.261062114999999872e-01,2.088003893000000222e+00
2.267761527999999915e-01,2.087948223999999797e+00
2.274460942000000041e-01,2.087892053000000026e+00
2.281160355000000084e-01,2.087836708999999846e+00
2.287859916999999965e-01,2.087783675999999922e+00
2.294559330000000008e-01,2.087733926999999934e+00
2.301258743000000051e-01,2.087687761999999836e+00
2.307958156000000094e-01,2.087644162000000136e+00
2.314657569000000137e-01,2.087601471000000153e+00
2.321357131000000018e-01,2.087557557999999869e+00
2.328056544000000061e-01,2.087511455000000016e+00
2.334755957000000104e-01,2.087462529999999816e+00
2.341455369999999869e-01,2.087410649000000173e+00
2.348154782999999912e-01,2.087356482000000124e+00
2.354854345000000071e-01,2.087300207999999824e+00
2.361553758000000114e-01,2.087242008000000038e+00
2.368253170999999879e-01,2.087181734000000066e+00
2.374952585000000005e-01,2.087119405999999788e+00
2.381651998000000048e-01,2.087055996000000135e+00
2.388351559999999929e-01,2.086992786000000155e+00
2.395050972999999972e-01,2.086931509999999879e+00
2.401750386000000015e-01,2.086874050000000036e+00
2.408449799000000058e-01,2.086821313999999816e+00
2.415149212000000101e-01,2.086773578999999934e+00
2.421848773999999982e-01,2.086730177999999825e+00
2.428548187000000025e-01,2.086689670000000163e+00
2.435247600000000068e-01,2.086650785999999869e+00
2.441947013000000111e-01,2.086612113999999796e+00
2.448646425999999876e-01,2.086572415000000014e+00
2.455345988000000035e-01,2.086530617000000198e+00
