x [m],Pressure [kPa]
1.213118085000000103e-03,9.896127694000000474e+01
1.213243812999999921e-03,9.885713832000000423e+01
1.213495502999999923e-03,9.837320096999999919e+01
1.213874434999999983e-03,9.772259515000000363e+01
1.214382703999999967e-03,9.685465390999999613e+01
1.215023453999999892e-03,9.581608156000000065e+01
1.215799479000000084e-03,9.458970936000000052e+01
1.216714969000000065e-03,9.316840820000000178e+01
1.217775162999999933e-03,9.155211201999999560e+01
1.218985766000000096e-03,8.973454241999999681e+01
1.220353063999999937e-03,8.771884803999999747e+01
1.221885206000000073e-03,8.549229821999999501e+01
1.223590923000000092e-03,8.307546417000000361e+01
1.225479762000000012e-03,8.045548304999999800e+01
1.227563014000000036e-03,7.763941142000000184e+01
1.229853020000000073e-03,7.463725085999999465e+01
1.232364214999999907e-03,7.143818822999999441e+01
1.235112081999999905e-03,6.808359179999999355e+01
1.238114433000000016e-03,6.454458746999999619e+01
1.241390942999999903e-03,6.086751641000000035e+01
1.244963379999999972e-03,5.706386538000000286e+01
1.248856541000000018e-03,5.311967406000000125e+01
1.253097784000000011e-03,4.912272509000000298e+01
1.257717144000000068e-03,4.503327568000000269e+01
1.262748614000000101e-03,4.093987836000000158e+01
1.268229913000000096e-03,3.687695865999999967e+01
1.274202834000000024e-03,3.290207333000000034e+01
1.280713244000000056e-03,2.905470353000000117e+01
1.287811319000000060e-03,2.520547922000000085e+01
1.295552473000000007e-03,2.153032676999999850e+01
1.303995958999999922e-03,1.789433598000000103e+01
1.313205225999999979e-03,1.549749964999999996e+01
1.323246397000000076e-03,1.224477178999999971e+01
1.334185945000000012e-03,9.711306684000000189e+00
1.345622120000000048e-03,8.290620488000000066e+00
1.357895670999999943e-03,7.706622527999999583e+00
1.371894963000000077e-03,7.199838007000000317e+00
1.387861673999999908e-03,6.762575248000000094e+00
1.406070542999999931e-03,6.370264236999999774e+00
1.426834263999999901e-03,6.006810923999999829e+00
1.450508833000000017e-03,5.662463254000000390e+00
1.477498560999999976e-03,5.328913308999999821e+00
1.508263405000000038e-03,5.004441710000000043e+00
1.543325139000000000e-03,4.691795627000000302e+00
1.583276317000000032e-03,4.393373023999999738e+00
1.628788887000000079e-03,4.110084470000000323e+00
1.680623973000000028e-03,3.841356985000000002e+00
1.739643047999999944e-03,3.588255744000000025e+00
1.806820044000000038e-03,3.350486438999999983e+00
1.883254154000000040e-03,3.131335850000000143e+00
1.970184733999999927e-03,2.929272930000000219e+00
2.069005743000000130e-03,2.748853510000000000e+00
2.181282965000000146e-03,2.581882349999999882e+00
2.308769384000000213e-03,2.445506566000000159e+00
2.453424268999999849e-03,2.298137817999999832e+00
2.617429475999999942e-03,2.227240328000000158e+00
2.803205512000000142e-03,2.125387214999999941e+00
3.013427835000000079e-03,2.039633183999999932e+00
3.251038725000000070e-03,1.970097596000000006e+00
3.519256598999999895e-03,1.923172695999999959e+00
3.821578109999999948e-03,1.879751479999999919e+00
4.161774646000000050e-03,1.861184214999999975e+00
4.543876740999999719e-03,1.837260257999999924e+00
4.972148220999999570e-03,1.841096010000000005e+00
5.451040808000000119e-03,1.844190663000000008e+00
5.985134746999999644e-03,1.856888533000000008e+00
6.579050793999999779e-03,1.876395623999999929e+00
7.237344514999999832e-03,1.900900760999999939e+00
7.964368910000000149e-03,1.929233191000000014e+00
8.764110505999999148e-03,1.958844406000000093e+00
9.640001691999999442e-03,1.988138141999999942e+00
1.059471071000000000e-02,2.014877499999999877e+00
1.162991485999999991e-02,2.040858769999999822e+00
1.274607143999999942e-02,2.060184315999999960e+00
1.394220068999999992e-02,2.079325126000000079e+00
1.521569396999999935e-02,2.089568494999999970e+00
1.656217314000000065e-02,2.101792554000000202e+00
1.797541044999999976e-02,2.104377092000000005e+00
1.944733783999999868e-02,2.107995289999999855e+00
2.096815594000000019e-02,2.108307711999999778e+00
2.252653054999999988e-02,2.108827193000000211e+00
2.410990186000000132e-02,2.104362040999999905e+00
2.570487185999999896e-02,2.102730033999999915e+00
2.729764021999999887e-02,2.100168286000000162e+00
2.887448482000000080e-02,2.097576027000000121e+00
3.042222559000000090e-02,2.094940359999999835e+00
3.192865848999999756e-02,2.092427373000000035e+00
3.338290378000000058e-02,2.090224583999999997e+00
3.477570041999999972e-02,2.088566828999999903e+00
3.609955311000000167e-02,2.088170121000000101e+00
3.734883293999999992e-02,2.088887356999999945e+00
3.851973264999999924e-02,2.091091365000000035e+00
3.961017727999999877e-02,2.094560659999999963e+00
4.061967134000000340e-02,2.098382733000000222e+00
4.154907911999999870e-02,2.102854735999999836e+00
4.240042715999999684e-02,2.106635268999999866e+00
4.317663983000000205e-02,2.111411282999999806e+00
4.388135298999999712e-02,2.114792189000000100e+00
4.455129801999999778e-02,2.118229067000000132e+00
4.522124304999999844e-02,2.121406712000000194e+00
4.589118435999999662e-02,2.124391849999999859e+00
4.656112938999999729e-02,2.127137834000000005e+00
4.723107441999999795e-02,2.129612922999999824e+00
4.790101944999999861e-02,2.131800783000000088e+00
4.857096449000000010e-02,2.133682866000000011e+00
4.924090578999999746e-02,2.135280502000000080e+00
4.991085081999999812e-02,2.136615395000000195e+00
5.058079584999999878e-02,2.137705486000000210e+00
5.125074089000000027e-02,2.138579970999999968e+00
5.192068592000000093e-02,2.139279318999999902e+00
5.259063095000000160e-02,2.139841206999999912e+00
5.326057224999999895e-02,2.140281673000000051e+00
5.393051729000000044e-02,2.140605078000000105e+00
5.460046232000000110e-02,2.140801666999999853e+00
5.527040735000000177e-02,2.140863878000000220e+00
5.594035238000000243e-02,2.140794679999999950e+00
5.661029369000000061e-02,2.140609609000000191e+00
5.728023872000000127e-02,2.140335572000000131e+00
5.795018375000000194e-02,2.139995761999999857e+00
5.862012878000000260e-02,2.139611180999999807e+00
5.929007381000000326e-02,2.139190065000000196e+00
5.996001512000000144e-02,2.138739002999999972e+00
6.062996015000000211e-02,2.138259468000000219e+00
6.129990518000000277e-02,2.137753158999999847e+00
6.196985021000000343e-02,2.137230735999999798e+00
6.263979524000000410e-02,2.136695731000000098e+00
6.330973654999999534e-02,2.136152447000000176e+00
6.397968531000000625e-02,2.135606469999999923e+00
6.464962660999999666e-02,2.135055245999999851e+00
6.531956792000000178e-02,2.134502275000000004e+00
6.598951667999999882e-02,2.133949036999999826e+00
6.665945798000000311e-02,2.133390578000000204e+00
6.732940674000000014e-02,2.132831834000000093e+00
6.799934804000000443e-02,2.132278245000000183e+00
6.866928934999999568e-02,2.131725938000000209e+00
6.933923811000000659e-02,2.131179240999999891e+00
7.000917940999999700e-02,2.130639765999999824e+00
7.067912816999999404e-02,2.130099523999999800e+00
7.134906947999999915e-02,2.129560128000000052e+00
7.201901078000000345e-02,2.129027216999999972e+00
7.268895954000000048e-02,2.128494998999999943e+00
7.335890085000000560e-02,2.127961657000000173e+00
7.402884960000000181e-02,2.127432208000000102e+00
7.469879091000000693e-02,2.126904896000000100e+00
7.536873966000000313e-02,2.126378406999999804e+00
7.603868096999999437e-02,2.125869052000000092e+00
7.670862227999999949e-02,2.125398731999999846e+00
7.737857102999999570e-02,2.124970846000000080e+00
7.804851234000000082e-02,2.124579687000000217e+00
7.871846109999999785e-02,2.124219017999999792e+00
7.938840240000000215e-02,2.123868971999999911e+00
8.005834370999999339e-02,2.123498274000000130e+00
8.072829247000000430e-02,2.123090527000000005e+00
8.139823376999999471e-02,2.122651778999999905e+00
8.206818253000000563e-02,2.122195485999999853e+00
8.273812382999999604e-02,2.121732842000000119e+00
8.340806514000000116e-02,2.121272401000000141e+00
8.407801389999999819e-02,2.120825384999999841e+00
8.474795520000000248e-02,2.120402433000000197e+00
8.541790395999999952e-02,2.120002309000000196e+00
8.608784527000000464e-02,2.119613256000000057e+00
8.675778656999999505e-02,2.119226054999999942e+00
8.742773533000000596e-02,2.118842195000000039e+00
8.809767662999999638e-02,2.118466537999999844e+00
8.876762538999999341e-02,2.118097832000000125e+00
8.943756669999999853e-02,2.117727023000000042e+00
9.010750800000000282e-02,2.117349948000000204e+00
9.077745675999999986e-02,2.116970505999999919e+00
9.144739807000000498e-02,2.116593099999999783e+00
9.211734682000000118e-02,2.116217275999999980e+00
9.278728813000000630e-02,2.115834624000000108e+00
9.345722943999999754e-02,2.115438596000000171e+00
9.412717818999999375e-02,2.115035521999999890e+00
9.479711949999999887e-02,2.114636549000000088e+00
9.546706824999999508e-02,2.114245357999999797e+00
9.613700956000000020e-02,2.113855480999999870e+00
9.680695087000000532e-02,2.113460036999999847e+00
9.747689962000000152e-02,2.113061667000000199e+00
9.814684093000000664e-02,2.112670281000000205e+00
9.881678969000000368e-02,2.112291679000000144e+00
9.948673098999999409e-02,2.111918935999999913e+00
1.001566722999999992e-01,2.111539453999999871e+00
1.008266210999999996e-01,2.111147533000000021e+00
1.014965624000000038e-01,2.110754062999999903e+00
1.021665110999999959e-01,2.110381150999999900e+00
1.028364524000000002e-01,2.110050692000000172e+00
1.035063937000000045e-01,2.109771383000000000e+00
1.041763425000000048e-01,2.109536233000000038e+00
1.048462837999999953e-01,2.109324153999999840e+00
1.055162325999999956e-01,2.109109196999999991e+00
1.061861738999999999e-01,2.108870356999999807e+00
1.068561226000000058e-01,2.108595497000000041e+00
1.075260638999999963e-01,2.108280355999999855e+00
1.081960052000000005e-01,2.107928477999999828e+00
1.088659540000000009e-01,2.107548726000000094e+00
1.095358953000000052e-01,2.107154587000000134e+00
1.102058439999999973e-01,2.106765240000000095e+00
1.108757853999999959e-01,2.106394273999999900e+00
1.115457267000000002e-01,2.106056984999999937e+00
1.122156754000000062e-01,2.105756486999999844e+00
1.128856166999999966e-01,2.105490275999999827e+00
1.135555654999999969e-01,2.105215525999999837e+00
1.142255068000000012e-01,2.104998582999999979e+00
1.148954481000000055e-01,2.104681409999999975e+00
1.155653967999999976e-01,2.104443187000000215e+00
1.162353381999999963e-01,2.104164991999999845e+00
1.169052869000000022e-01,2.103871990000000025e+00
1.175752282000000065e-01,2.103560727000000075e+00
1.182451694999999969e-01,2.103234403000000086e+00
1.189151182999999973e-01,2.102905375000000188e+00
1.195850596000000016e-01,2.102592875000000028e+00
1.202550082999999936e-01,2.102316477000000017e+00
1.209249495999999979e-01,2.102090317000000042e+00
1.215948909999999966e-01,2.101916833999999845e+00
1.222648397000000026e-01,2.101785551999999946e+00
1.229347810000000069e-01,2.101676976999999891e+00
1.236047297999999933e-01,2.101570801999999905e+00
1.242746710999999976e-01,2.101449305000000045e+00
1.249446124000000019e-01,2.101303779999999843e+00
1.256145536999999923e-01,2.101135364000000116e+00
1.262845099000000082e-01,2.100952078000000167e+00
1.269544512000000125e-01,2.100762964999999927e+00
1.276243924999999890e-01,2.100574353999999921e+00
1.282943337999999933e-01,2.100388301000000180e+00
1.289642750999999976e-01,2.100206093000000163e+00
1.296342313000000135e-01,2.100028693000000057e+00
1.303041725999999900e-01,2.099858205999999949e+00
1.309741138999999943e-01,2.099700750999999865e+00
1.316440551999999986e-01,2.099559004000000062e+00
1.323139966000000112e-01,2.099430008000000125e+00
1.329839527999999993e-01,2.099304877999999874e+00
1.336538941000000036e-01,2.099169800999999946e+00
1.343238354000000079e-01,2.099011099000000158e+00
1.349937767000000122e-01,2.098820558999999975e+00
1.356637179999999887e-01,2.098597955999999876e+00
1.363336742000000046e-01,2.098351963999999903e+00
1.370036155000000089e-01,2.098098139000000195e+00
1.376735568000000132e-01,2.097856285999999848e+00
1.383434980999999897e-01,2.097643345999999909e+00
1.390134393999999940e-01,2.097469545000000046e+00
1.396833956000000099e-01,2.097333090999999872e+00
1.403533368999999864e-01,2.097219947999999778e+00
1.410232781999999907e-01,2.097112183000000130e+00
1.416932194999999950e-01,2.096992595000000126e+00
1.423631607999999993e-01,2.096847907999999983e+00
1.430331170999999957e-01,2.096675294999999828e+00
1.437030584000000000e-01,2.096483983999999801e+00
1.443729997000000043e-01,2.096291948999999821e+00
1.450429410000000086e-01,2.096120245999999909e+00
1.457128971999999967e-01,2.095984719000000052e+00
1.463828385000000010e-01,2.095892116999999999e+00
1.470527798000000053e-01,2.095839151999999928e+00
1.477227211000000096e-01,2.095814378000000033e+00
1.483926624000000138e-01,2.095800940000000168e+00
1.490626036999999904e-01,2.095780881000000040e+00
1.497325599000000063e-01,2.095739486999999901e+00
1.504025012000000106e-01,2.095668472999999921e+00
1.510724424999999871e-01,2.095564341000000219e+00
1.517423837999999914e-01,2.095429283000000087e+00
1.524123400000000073e-01,2.095267562000000083e+00
1.530822813999999921e-01,2.095087196000000151e+00
1.537522226999999964e-01,2.094897312000000067e+00
1.544221640000000006e-01,2.094708094000000020e+00
1.550921053000000049e-01,2.094529061999999886e+00
1.557620466000000092e-01,2.094366658000000214e+00
1.564320027999999974e-01,2.094225514000000121e+00
1.571019441000000016e-01,2.094108976999999872e+00
1.577718854000000059e-01,2.094019374999999794e+00
1.584418267000000102e-01,2.093957322000000065e+00
1.591117828999999984e-01,2.093919617000000066e+00
1.597817242000000026e-01,2.093900490999999864e+00
1.604516655000000069e-01,2.093891913000000216e+00
1.611216068000000112e-01,2.093885998999999831e+00
1.617915480999999878e-01,2.093874981999999996e+00
1.624615043000000036e-01,2.093853556000000005e+00
1.631314456000000079e-01,2.093819991000000158e+00
1.638013869999999927e-01,2.093777213000000081e+00
1.644713282999999970e-01,2.093732480999999979e+00
1.651412696000000013e-01,2.093694767000000123e+00
1.658112257999999894e-01,2.093669245000000068e+00
1.664811670999999937e-01,2.093651439999999919e+00
1.671511083999999980e-01,2.093626297000000136e+00
1.678210497000000023e-01,2.093572218999999901e+00
1.684909910000000066e-01,2.093468178000000179e+00
1.691609471999999947e-01,2.093300434000000099e+00
1.698308884999999990e-01,2.093069068999999782e+00
1.705008298000000033e-01,2.092788167999999782e+00
1.711707711000000076e-01,2.092484001999999954e+00
1.718407124000000119e-01,2.092189926000000089e+00
1.725106686000000000e-01,2.091937684999999991e+00
1.731806099000000043e-01,2.091751955999999968e+00
1.738505512000000086e-01,2.091644184000000184e+00
1.745204925999999934e-01,2.091609130000000150e+00
1.751904338999999977e-01,2.091628646999999841e+00
1.758603901000000136e-01,2.091675819000000214e+00
1.765303313999999901e-01,2.091723276999999825e+00
1.772002726999999944e-01,2.091749842000000026e+00
1.778702139999999987e-01,2.091743816000000145e+00
1.785401553000000030e-01,2.091705568000000071e+00
1.792101114999999911e-01,2.091646878999999792e+00
1.798800527999999954e-01,2.091589047999999895e+00
1.805499940999999997e-01,2.091557047999999863e+00
1.812199354000000040e-01,2.091572762000000196e+00
1.818898767000000083e-01,2.091647124000000080e+00
1.825598328999999964e-01,2.091775544999999958e+00
1.832297742000000007e-01,2.091936537000000040e+00
1.838997155000000050e-01,2.092096359000000128e+00
1.845696568000000093e-01,2.092218874999999922e+00
1.852395981999999941e-01,2.092275026999999898e+00
1.859095544000000100e-01,2.092249225999999851e+00
1.865794956999999865e-01,2.092141128000000183e+00
1.872494369999999908e-01,2.091964985999999804e+00
1.879193782999999951e-01,2.091744312999999966e+00
1.885893195999999994e-01,2.091506514999999844e+00
1.892592757999999875e-01,2.091277412999999807e+00
1.899292170999999918e-01,2.091076868000000033e+00
1.905991583999999961e-01,2.090914719999999782e+00
1.912690997000000004e-01,2.090792149999999960e+00
1.919390410000000047e-01,2.090702824000000071e+00
1.926089971999999928e-01,2.090636554000000036e+00
1.932789384999999971e-01,2.090582705000000097e+00
1.939488798000000014e-01,2.090535479000000141e+00
1.946188211000000057e-01,2.090489165999999788e+00
1.952887624999999905e-01,2.090440645999999791e+00
1.959587187000000064e-01,2.090389169999999908e+00
1.966286600000000107e-01,2.090334765000000150e+00
1.972986012999999872e-01,2.090278234999999984e+00
1.979685425999999915e-01,2.090221323000000186e+00
1.986384838999999958e-01,2.090165745999999825e+00
1.993084401000000117e-01,2.090112824000000202e+00
1.999783813999999882e-01,2.090063479999999974e+00
2.006483226999999925e-01,2.090016920000000056e+00
2.013182639999999968e-01,2.089971048999999859e+00
2.019882202000000126e-01,2.089923605000000073e+00
2.026581614999999892e-01,2.089873294999999853e+00
2.033281027999999935e-01,2.089819401999999826e+00
2.039980440999999978e-01,2.089762144999999904e+00
2.046679854000000021e-01,2.089701564999999928e+00
2.053379267000000064e-01,2.089638052000000190e+00
2.060078830000000027e-01,2.089572009999999924e+00
2.066778243000000070e-01,2.089504561000000038e+00
2.073477656000000113e-01,2.089437552000000142e+00
2.080177068999999879e-01,2.089373339000000218e+00
2.086876631000000037e-01,2.089313896999999809e+00
2.093576044000000080e-01,2.089259726999999955e+00
2.100275457000000123e-01,2.089210592000000144e+00
2.106974869999999889e-01,2.089164826999999836e+00
2.113674282999999932e-01,2.089120074000000216e+00
2.120373695999999974e-01,2.089074167999999787e+00
2.127073258000000133e-01,2.089026057999999963e+00
2.133772670999999899e-01,2.088975056000000219e+00
2.140472083999999942e-01,2.088921712999999958e+00
2.147171496999999984e-01,2.088865882999999979e+00
2.153871058999999866e-01,2.088807933000000006e+00
2.160570471999999909e-01,2.088747536000000071e+00
2.167269886000000034e-01,2.088685762999999973e+00
2.173969299000000077e-01,2.088623676000000096e+00
2.180668712000000120e-01,2.088563708000000130e+00
2.187368274000000001e-01,2.088507744999999804e+00
2.194067687000000044e-01,2.088456615000000127e+00
2.200767100000000087e-01,2.088410102000000101e+00
2.207466513000000130e-01,2.088366451000000179e+00
2.214165925999999895e-01,2.088323914000000059e+00
2.220865488000000054e-01,2.088280612000000147e+00
2.227564901000000097e-01,2.088235188000000075e+00
2.234264313999999862e-01,2.088187324000000178e+00
2.240963726999999905e-01,2.088137376999999795e+00
2.247663139999999948e-01,2.088085868999999928e+00
2.254362702000000107e-01,2.088033159000000083e+00
2.261062114999999872e-01,2.087979084000000096e+00
2.267761527999999915e-01,2.087923656000000072e+00
2.274460942000000041e-01,2.087867221000000217e+00
2.281160355000000084e-01,2.087810455000000065e+00
2.287859916999999965e-01,2.087754850000000051e+00
2.294559330000000008e-01,2.087702211999999946e+00
2.301258743000000051e-01,2.087653007000000116e+00
2.307958156000000094e-01,2.087607047000000104e+00
2.314657569000000137e-01,2.087562826000000094e+00
2.321357131000000018e-01,2.087518697999999784e+00
2.328056544000000061e-01,2.087472870000000036e+00
2.334755957000000104e-01,2.087424219999999941e+00
2.341455369999999869e-01,2.087372445999999826e+00
2.348154782999999912e-01,2.087317581999999838e+00
2.354854345000000071e-01,2.087259808000000216e+00
2.361553758000000114e-01,2.087199474999999804e+00
2.368253170999999879e-01,2.087136601000000091e+00
2.374952585000000005e-01,2.087071367000000066e+00
2.381651998000000048e-01,2.087004593000000074e+00
2.388351559999999929e-01,2.086937400000000054e+00
2.395050972999999972e-01,2.086871533000000056e+00
2.401750386000000015e-01,2.086808872999999842e+00
2.408449799000000058e-01,2.086751440000000013e+00
2.415149212000000101e-01,2.086700287999999848e+00
2.421848773999999982e-01,2.086655368000000177e+00
2.428548187000000025e-01,2.086616003000000052e+00
2.435247600000000068e-01,2.086580278000000011e+00
2.441947013000000111e-01,2.086546144999999797e+00
2.448646425999999876e-01,2.086510654000000020e+00
2.455345988000000035e-01,2.086471340000000119e+00
