"Region: Body 1.Ramp1: Position[X] (m)","Region: Body 1.Ramp1: Absolute Pressure (Pa)","Region: Body 1.Ramp2: Position[X] (m)","Region: Body 1.Ramp2: Absolute Pressure (Pa)"
1.2143478528438658,6998.867303699067,2.504147698764818,99566.52594508373
1.2138515756011077,6999.97200134333,2.504065349305024,111737.10539095046
1.2133552983498792,7001.290575183309,2.50397064748197,114278.39084848853
1.2128590210986563,7002.788023077863,2.5038617404580843,113928.69705389891
1.2123627438495577,7004.443911720948,2.5037364974777425,113333.02275404426
1.2118629534018244,7006.239895621791,2.503592468177229,113375.24199160052
1.2113666751890324,7008.124935615847,2.503426834651504,113348.26812890013
1.2108739121022951,7010.059561641253,2.5032363563198046,113333.29596140874
1.210377634851103,7012.04338399395,2.5030173065380072,113308.61190525859
1.209881357599912,7014.028104961589,2.5027653996788013,113280.04393647508
1.209385080357205,7015.978040816713,2.502475707307319,113253.4991437417
1.2088888031060274,7017.863284224901,2.50214256177392,113226.11234912011
1.2083925258548558,7019.655562773382,2.501759445314695,113200.95591524667
1.2078908604323653,7021.3504766786455,2.5013188625977163,113181.95826881436
1.207394581713309,7022.890550462004,2.500812194075689,113180.6011170092
1.2069036941098517,7024.27583874719,2.5001701507654412,113192.73355615823
1.2064074168587005,7025.531189395171,2.499607440122198,113216.82380123605
1.2059111396160336,7026.623132091806,2.4992242991888554,113243.84578245522
1.2054148623648964,7027.564247175672,2.498841158251144,113279.67392569504
1.2049185851137652,7028.351791015913,2.4984580173156608,113320.24381859979
1.2044223078626395,7028.99260623451,2.498074876382409,113367.96605427976
1.2039260306197581,7029.489949289544,2.4976917354469887,113421.73758370405
1.2034297533686467,7029.86117394114,2.4973085945104994,113480.80090837408
1.2029334761177715,7030.113178938113,2.4969254535751397,113543.39074442194
1.2024371988666713,7030.260306624561,2.496542312640911,113608.88582005938
1.2019409216155723,7030.315728030071,2.496159171705614,113678.69824924361
1.2014446443729576,7030.303816194373,2.495776030770348,113747.8216878867
1.2009483671218728,7030.2312060676595,2.495392889835113,113816.24031855371
1.200452089871853,7030.110786820999,2.495009748899909,113885.3302231807
1.1999558126161676,7029.950986952015,2.4946296661178917,113953.80080672972
1.1994595353725128,7029.7624854423175,2.4942465267914353,114021.29174556298
1.1989632581260674,7029.552487706217,2.493860326094484,114081.35441012694
1.1984669808750097,7029.326715100532,2.4934771851594055,114138.11982481457
1.1979707036324356,7029.091135988871,2.4930940442243585,114193.25581436214
1.197474426381392,7028.851754139258,2.492710903289343,114239.50027391927
1.196978149130354,7028.612314530242,2.4923277623543596,114282.37235035523
1.1964858107256182,7028.378673530198,2.4919446214194076,114319.9590454764
1.19598953457261,7028.151560636891,2.4915614804844872,114348.78944841913
1.195489317385751,7027.931922683954,2.4911783395495988,114375.78783600267
1.1949930401347344,7027.72487459,2.4907973536977286,114394.2941194909
1.1944967628837284,7027.527803335538,2.490414213905564,114411.08341764973
1.1940004856327235,7027.338278049094,2.4900289167451257,114422.62496630503
1.1935042083902028,7027.153181310394,2.489645775811465,114433.10591265751
1.193007931139212,7026.967773797514,2.4892626348767384,114439.44721262634
1.1925171054050814,7026.77988738456,2.488879493940943,114444.04657744076
1.1920208296670953,7026.583979728661,2.488496353008479,114447.98314445083
1.1915190993947495,7026.377910234537,2.4881132120738503,114453.47200707348
1.1910228221437853,7026.168717727463,2.4877300711370527,114460.2551208453
1.1905265448928224,7025.95701959449,2.487346930202487,114467.82328544086
1.1900302676503436,7025.745452506689,2.4869630073252136,114476.69368361682
1.1895339903993947,7025.534658532817,2.4865798659727893,114488.35120711566
1.1890377131484517,7025.324299321114,2.486197507403386,114499.87839854282
1.1885414358975148,7025.111897170417,2.4858143664711543,114514.63666282869
1.1880451586550576,7024.89233680533,2.485431225532355,114531.27845153789
1.187548881404135,7024.662031340258,2.485048084595788,114549.7266975712
1.187052604153214,7024.416843302256,2.484664943663653,114569.69716868454
1.1865563269023038,7024.153424075068,2.4842818027293534,114592.66327225983
1.1860600496513947,7023.868879882137,2.483898661792886,114617.92502064531
1.1855637724047332,7023.561778492173,2.4835155208630497,114644.40770584514
1.1850674951517193,7023.235403829654,2.4831286609850802,114672.97302684558
1.184565766409967,7022.880575465782,2.482745518042777,114703.73215759409
1.1840694876380597,7022.520297745074,2.4823660980605498,114734.78132276256
1.1835786634139023,7022.149875084455,2.48198295713085,114767.27867773718
1.1830823861630346,7021.791707005529,2.4815998161923876,114801.12071845202
1.1825861089036946,7021.445693050664,2.481216675253957,114836.46140705369
1.1820898316613102,7021.147415511128,2.480833534324357,114869.76556025233
1.1815935544146976,7020.903602437373,2.4804503933903965,114902.10911632213
1.1810972771617325,7020.7357043015,2.4800672524520677,114932.09127308623
1.1805970610895875,7020.657605201921,2.4796841115225705,114952.82008335364
1.1801007827451409,7020.6598629267855,2.4792969706085812,114972.11659092117
1.1796084454240647,7020.7565448925925,2.4789138275064335,114975.1255631151
1.179112168173241,7020.939176738619,2.478534688729893,114973.78334774912
1.1786158909224285,7021.203785757703,2.4781515477917364,114964.49103052673
1.1781196136716174,7021.5354782247605,2.477768406862412,114948.8132977465
1.1776233364250541,7021.919427893273,2.477385265933125,114925.88876948683
1.1771270591721383,7022.336708310133,2.4770021249950753,114899.97057077527
1.17663078192113,7022.766565139232,2.4766226146238783,114871.31796071185
1.1761345046724636,7023.187620983267,2.4762394756780375,114840.51464803978
1.1756382274346162,7023.579078713203,2.4758527021943295,114811.86709612331
1.1751419501838472,7023.925578829378,2.4754695612575177,114782.76833004318
1.1746456729246058,7024.223278508938,2.4750864203284397,114759.31343684043
1.1741493956823204,7024.471277139299,2.4747032793939012,114739.77696992195
1.1736531184358068,7024.675480413673,2.4743201384582947,114724.3403788128
1.1731568411829405,7024.843034062779,2.4739369975293233,114721.45636519593
1.1726605639296077,7024.986375921438,2.4735538565981887,114723.86213033207
1.1721642866894642,7025.1206676746515,2.4731707156604927,114734.24763846326
1.171668009445571,7025.2517757682745,2.4727906806357614,114752.15695908501
1.1711717321948472,7025.386218979699,2.4724075414176823,114779.27200731434
1.1706754549441343,7025.527431169328,2.4720212928652106,114813.06976180163
1.1701791776934234,7025.676843155718,2.4716381519298576,114853.65723459702
1.1696829004469598,7025.837153233148,2.4712550109967384,114897.74572803805
1.1691920113586063,7026.004322610927,2.470871870065856,114945.54189215058
1.066953510120068,7009.742097697863,2.470488729130612,114995.25079993623
1.0674541687399703,7009.501264853361,2.4701055881976015,115048.50833945972
1.0679504446274877,7009.400978886491,2.469722447266829,115100.61162777116
1.0684423418634563,7009.463862727589,2.469339306333893,115151.96136176311
1.070427450864646,7011.40267617553,2.4689563343078373,115199.9893427949
1.0709237280971076,7012.301532595137,2.4685731934687856,115244.03906400641
1.0689386191084453,7009.696908140819,2.4681898835353064,115281.9933769308
1.069931173615398,7010.678859476038,2.467806742601419,115308.09705603599
1.0714200053442582,7013.286946333771,2.467423601668667,115332.91535032677
1.0694348963576794,7010.086029750108,2.4670404607370533,115349.12401894615
1.0719162825976174,7014.406643884821,2.4666573198043764,115361.34232952073
1.0724125598405445,7015.581219890296,2.4662741788717373,115372.53166718477
1.0758865005751648,7023.086041274218,2.4658910379391354,115384.13204244207
1.076382777826633,7023.640180902075,2.4655078970065714,115397.56567166475
1.0729088370855995,7016.8383542246065,2.465121988005275,115414.82400552001
1.0768790550717506,7024.019538297756,2.464738845522488,115427.32313024292
1.0753902233362533,7022.362393277327,2.4643584742091056,115438.59592625742
1.0873040269884002,7017.770214354354,2.463975333277792,115445.12285050648
1.0877971545172578,7018.296538471364,2.463592192345418,115444.94888954052
1.077375332312642,7024.22993016431,2.4632090514119813,115437.65446968813
1.0734051143433754,7018.088588233111,2.462825910479683,115424.7541464783
1.074893946097515,7021.475427911921,2.462442769547423,115409.59770402544
1.07836788681987,7024.1479930418645,2.4620596286152012,115393.64821019312
1.0778716095704912,7024.265303312876,2.4616764876830186,115375.47160930524
1.0798567185532317,7022.880595368873,2.4612899196881415,115364.0836643667
1.0803529958047646,7022.219000642952,2.460906776820395,115355.15196073157
1.0818418275488133,7019.947150335448,2.460527064886702,115348.3017195205
1.0823381047982612,7019.212994836099,2.4145531766267534,122806.10636336224
1.086807750697657,7017.362521657315,2.4149363156519534,122868.25031639056
1.0882934317667983,7018.878200599622,2.4153164352416123,122887.88831989706
1.073901391592681,7019.304650145614,2.4156995761682953,122850.5329212798
1.0743976688419998,7020.445623473028,2.4160827170928316,122774.27115165249
1.0788595047008873,7023.876355066905,2.4164658580152234,122580.37688130348
1.0793557833764926,7023.443272273317,2.416848998944267,122374.8416412121
1.0808492730499468,7021.485794263545,2.41723213987336,122086.92851636677
1.0813455502993787,7020.715777598254,2.41761528079591,121776.96112777648
1.0828320796297008,7018.545757152391,2.417998421725112,121405.18396339209
1.0863083227771577,7017.047716674622,2.418385144442714,121017.87192226578
1.0887897090078702,7019.536530776362,2.418768283133816,120589.85094755028
1.083328357571788,7017.961841171478,2.4191478445064276,120180.69787539024
1.0892859862574287,7020.211406214111,2.4195309854380342,119761.29539464453
1.0858120455276514,7016.868999528827,2.4199141263608954,119371.64689668857
1.0838269365318125,7017.4827793214945,2.4202972672838112,119004.53703254974
1.08978226350699,7020.913197745255,2.4206804082155755,118695.81688925854
1.085315768278148,7016.826381600618,2.421059495885857,118449.00755274814
1.0843232137834093,7017.13159990663,2.4214426393179016,118268.55089270714
1.0902785407565643,7021.595366867127,2.421829830997977,118157.90389798138
1.0848194910371312,7016.907699558414,2.422212971929943,118104.13548809792
1.0907799885383822,7022.264770421062,2.4225961128531632,118092.08407177338
1.0912762642117815,7022.87842990873,2.4229792537808366,118211.76666282454
1.0917673724968495,7023.440448991262,2.423362394704155,118334.20134504026
1.0922636497464524,7023.934854377461,2.423745535627532,118517.67140447594
1.0927599269960628,7024.355893966485,2.4241286765597505,118723.27591111828
1.093256204237205,7024.693581394932,2.4245118174832228,118936.01972794213
1.0937524814868336,7024.943777597768,2.4248911528190455,119137.93475393823
1.0942487587364647,7025.097395581418,2.4252742960854112,119324.87113650242
1.094750125912455,7025.162852274112,2.4256612402671376,119481.51654055306
1.0952464016244217,7025.140541161286,2.4260443811908114,119600.6358361565
1.0957375904769384,7025.037159068803,2.4264275221233316,119681.18662045608
1.0962338677266028,7024.84865691339,2.4268106630514983,119722.29113935644
1.096730144967799,7024.603589523705,2.42719380397532,119732.48438029234
1.0972264222174817,7024.327397161174,2.4275769449068876,119735.0653078208
1.0977226994671667,7024.0414382106965,2.427960085839602,119622.72122152484
1.098218976710856,7023.765158924136,2.428343226764667,119523.6383688018
1.0987152539605582,7023.516586832678,2.428725500796861,119408.83289435133
1.0992115312078012,7023.311911387921,2.4291086422565447,119263.65476593812
1.0997078084575191,7023.16539639527,2.429492649550054,119113.56920420358
1.1002040857072448,7023.085456938477,2.429875790474216,118951.3842495989
1.100700362956978,7023.07418141613,2.4302589314050227,118795.51934321853
1.1011966401982427,7023.1369665124985,2.430642072333677,118644.01764561016
1.1016929174479937,7023.2656528145,2.431025213260181,118504.2300051393
1.1021851224345474,7023.468196911385,2.4314083541911318,118375.20672627947
1.102681400897781,7023.71645831987,2.4317914951199286,118258.97864649374
1.103181749188808,7024.022913674968,2.4321746360465757,118155.35815410908
1.1036780264385866,7024.357707752372,2.4325598487769504,118064.63356503301
1.1041743036883724,7024.715944520445,2.4329429884582106,117981.25564955565
1.10467058092969,7025.089360146752,2.4333240588333953,117908.66131489073
1.1051668581794936,7025.453445358033,2.4337071997624298,117836.09891840104
1.1056631354292994,7025.806102235247,2.434090340691511,117765.96098421191
1.1061535960635882,7026.118623258975,2.434473481620638,117694.07751677893
1.1066498750525124,7026.397470235908,2.4348566225498125,117617.65415644197
1.1071519671702967,7026.63082600067,2.435239763480133,117539.55202928108
1.1076482444201352,7026.816449926259,2.435622904409399,117455.13633266932
1.108144521669981,7026.962837558347,2.4360060453376127,117362.52861025855
1.1086407989198344,7027.086041202071,2.436392195296164,117268.93531183146
1.109137076161219,7027.20543857868,2.4367753344296976,117166.90208755067
1.1096333534110896,7027.336756508714,2.4371554681258267,117067.96839502837
1.1101292671242082,7027.491560554357,2.437538609055323,116964.25125548913
1.1106255444739221,7027.67669319886,2.4379217499848655,116860.77806360171
1.1111221851522624,7027.889398427916,2.438304890914453,116763.0438775533
1.1116184624021601,7028.124421176225,2.4386880318440856,116666.07079833547
1.112114739652065,7028.371879756192,2.4390711727732137,116574.80445997455
1.1126110168935013,7028.614086303372,2.439454313702937,116484.63223341468
1.1131072941434235,7028.83880686919,2.4398374546332544,116396.65286260712
1.113603571393348,7029.032991318424,2.440220595563067,116309.76654332221
1.1141049381803954,7029.191421122278,2.440603736492924,116222.87938211707
1.1146012139194736,7029.307232089473,2.4409868774228256,116138.32501879401
1.1150924031346994,7029.383880920395,2.4413700183527722,116060.02275663073
1.1155886803846555,7029.425874165182,2.4417531592805637,115987.03172234459
1.1160849576261431,7029.438899712183,2.4421363002106,115931.89486306362
1.1165812348761164,7029.436921568825,2.442519441142878,115894.16466627066
1.117077512126092,7029.437081272082,2.4428978251451476,115874.4824707323
1.1175737893760798,7029.451610360589,2.4432809688718606,115869.73452893688
1.1180764073964191,7029.488865977146,2.443668863933379,115896.18540988547
1.1185726827623315,7029.557297587581,2.444052004863633,115936.87787518144
1.1190626211176034,7029.665791052595,2.444435145791731,115984.1851065
1.1195588983676172,7029.816112027715,2.4448182867220742,116050.32342739392
1.1200551756176387,7030.00666822177,2.445201427654658,116122.2163614553
1.1205514528591916,7030.237316644174,2.445584568582886,116194.11373346543
1.1210477301092299,7030.5052791606695,2.4459677095089583,116269.84609384133
1.1215440073662388,7030.816879863586,2.4463508504416738,116345.2221993479
1.1220402846099322,7031.160769322626,2.446732173105678,116418.4745844381
1.1225365618530225,7031.555560664644,2.44711531509147,116486.31275122803
1.1230328391009687,7031.987072470089,2.447500273233472,116546.36918345484
1.1235291163510406,7032.480186339028,2.4478834141685537,116594.08435597607
1.1240253935926432,7033.018695671544,2.448266555094881,116624.78861636473
1.1245216708427315,7033.6184363575685,2.448649696025653,116642.8499152787
1.1250179480928222,7034.2679004811125,2.4490328369608623,116647.98048830785
1.1255142253349844,7034.961041551047,2.449415977888416,116619.00993064817
1.12601050258721,7035.697546662481,2.449799118814914,116585.04655971678
1.1265067798367883,7036.432141173941,2.450182259749152,116529.18412694008
1.1270030570847913,7037.1610023366275,2.4505665210686893,116461.48936465508
1.1274993343349196,7037.848147857178,2.4509496613480715,116388.04473618853
1.1279956115850551,7038.474815363354,2.4513316825334153,116301.50396465085
1.1284918888267215,7039.013157699019,2.451714823460122,116209.30529507894
1.1289881660768735,7039.440489278979,2.4520979643956666,116103.02161716793
1.1294788343253535,7039.728950134144,2.4524811053312505,115994.65414406196
1.1299751132115712,7039.861649377527,2.4528642462580774,115878.0748716876
1.1304769978210065,7039.847584203181,2.4532473871882488,115763.48637006852
1.1309732750690655,7039.647294244617,2.4536305281239565,115654.99864395313
1.1314695523192502,7039.262034042465,2.454013669052006,115553.70591379308
1.1319658295609656,7038.680481502588,2.454400869025323,115461.51557950253
1.1324621068111664,7037.905465742936,2.454784007636425,115387.43084586441
1.1329583840613695,7036.933115334774,2.4551630918463005,115330.20215419549
1.133450783579485,7035.7791909332955,2.4555462327734157,115288.8250199278
1.1339470619633079,7034.431426455546,2.455929373707168,115264.90719002516
1.1344472158056724,7032.888583443535,2.456312514643159,115255.61051756519
1.1349434930537872,7031.1859062071735,2.4566956555725907,115254.9669352851
1.1354397703040273,7029.341574643596,2.457078796502616,115270.76556858481
1.1359360475542744,7027.394701117845,2.4574619374387265,115287.32279706802
1.1364323247960522,7025.382835295307,2.457845078367728,115305.55865190018
1.1369286020463152,7023.34338537849,2.458232425360575,115322.35461957128
1.1374264546290846,7021.308759926109,2.4586155639039946,115334.2833181416
1.137922731417062,7019.3285940827,2.4589945011588252,115341.57570838943
1.1384174337928998,7017.434848442793,2.4593776420907356,115345.63594381072
1.1389137110389513,7015.647350499016,2.4597607830248855,115347.74469228911
1.1394099882892466,7014.000464775601,2.460143923956873,115347.73444487092
1.1399062655310723,7012.51611989277,2.353247605985966,30425.25284258157
1.1404025427813835,7011.225175963572,2.35363074690153,30625.161473832697
1.1408988200316967,7010.120308472017,2.354013887817181,30240.049228014424
1.14139931881726,7009.220481768232,2.3543970287329197,29994.697912123534
1.1418955948485927,7008.521242393922,2.354780169648745,29893.495496085652
1.1423876517784475,7008.033466043721,2.355163310564657,29948.217204535365
1.1428839290245536,7007.730585278406,2.3555464514795554,30147.10675278029
1.143380206283379,7007.588749963873,2.3559295923956407,30424.574187033806
1.1438764835337332,7007.63788746106,2.3563127333129104,30767.532242316585
1.1443727607671466,7007.784074914995,2.3566988131184825,31167.7450363188
1.1448690380175188,7008.073040161382,2.357081951879464,31605.154058448185
1.1453698292154986,7008.417586151948,2.357462156061934,32077.862498129605
1.1458661051582173,7008.850362433048,2.3578452969784447,32577.762509508397
1.1463578697644292,7009.29124690672,2.3582284378928398,33102.19682887675
1.1468541470105893,7009.778343525279,2.3586115788095205,33644.94664639858
1.1473504242609927,7010.256779173515,2.3589947197284826,34203.96848266314
1.1478467015029266,7010.750207388254,2.3593778606431295,34778.24932395418
1.148342978753346,7011.225908811209,2.359761001560061,35363.661333357246
1.1488392560131921,7011.7111318213765,2.360144142479273,35958.5730807393
1.149335533259384,7012.189189965095,2.360530814469634,36556.16964290499
1.149831810504635,7012.686574723101,2.360913952820932,37165.21774150468
1.1503280877508404,7013.188921377151,2.3612935652264113,37769.4948700222
1.1508243649970538,7013.72500069179,2.3616767061481507,38391.938308364435
1.1513206422559865,7014.277672883853,2.362059847063375,39023.023324392256
1.1518169195064474,7014.878631420515,2.3624429879764817,39660.57601469675
