x(mm),Q (W/m2)
0,1691780
1.012,1411290
2.02300000000002,1011500
3.03299999999999,803684
4.04400000000001,674447
5.054,629714
6.06299999999999,633587
7.072,644596
8.08099999999999,644172
9.089,634228
10.097,621507
11.104,609354
12.112,598526
13.118,588932
14.124,580337
15.13,572539
16.136,565396
17.141,558807
18.146,552700
19.15,547018
20.154,541719
21.157,536761
22.16,532108
23.163,527731
24.165,523601
25.167,519695
26.168,515991
27.169,512471
28.17,509119
29.17,505919
30.17,502859
31.169,499928
32.168,497116
33.167,494413
34.165,491813
35.163,489308
36.16,486890
37.157,484556
38.154,482299
39.15,480115
40.146,477999
41.142,475949
42.137,473959
43.131,472027
44.125,470149
45.119,468324
46.113,466547
47.106,464817
48.098,463132
49.091,461490
50.082,459889
51.074,458327
52.065,456801
53.055,455311
54.046,453855
55.036,452432
56.025,451040
57.014,449677
58.003,448344
58.991,447040
59.979,445763
60.966,444511
61.953,443284
62.94,442080
63.926,440899
64.912,439741
65.898,438604
66.883,437489
67.867,436395
68.852,435319
69.836,434262
70.819,433224
71.802,432203
72.785,431200
73.767,430214
74.749,429244
75.731,428289
76.712,427350
77.693,426425
78.673,425515
79.653,424619
80.633,423738
81.612,422869
82.59,422013
83.569,421169
84.547,420338
85.524,419519
86.502,418711
87.478,417915
88.455,417131
89.431,416357
90.407,415593
91.382,414840
92.357,414097
93.331,413363
94.305,412639
95.279,411925
96.252,411220
97.225,410523
98.198,409836
99.17,409156
100.142,408485
101.113,407822
102.084,407167
103.054,406520
104.025,405880
104.994,405249
105.964,404624
106.933,404007
107.901,403398
108.87,402795
109.837,402199
110.805,401610
111.772,401026
112.739,400449
113.705,399877
114.671,399311
115.636,398751
116.602,398197
117.566,397650
118.531,397108
119.495,396573
120.458,396043
121.421,395519
122.384,395001
123.347,394487
124.309,393978
125.27,393473
126.232,392974
127.192,392479
128.153,391990
129.113,391505
130.073,391024
131.032,390549
131.991,390077
132.95,389610
133.908,389147
134.866,388687
135.823,388232
136.78,387781
137.737,387334
138.693,386891
139.649,386452
140.604,386017
141.559,385586
142.514,385158
143.469,384733
144.422,384311
145.376,383892
146.329,383477
147.282,383066
148.235,382659
149.187,382256
150.138,381857
151.09,381461
152.04,381069
152.991,380679
153.941,380292
154.891,379908
155.84,379526
156.789,379148
157.738,378773
158.686,378400
159.634,378031
160.581,377665
161.529,377302
162.475,376941
163.422,376583
164.368,376227
165.313,375874
166.258,375523
167.203,375175
168.148,374830
169.092,374488
170.035,374147
170.979,373810
171.922,373474
172.864,373141
173.806,372811
174.748,372483
175.689,372157
176.63,371833
177.571,371511
178.511,371192
179.451,370875
180.391,370559
181.33,370246
182.269,369935
183.207,369627
184.145,369320
185.083,369016
186.02,368713
186.957,368413
187.893,368114
188.83,367818
189.765,367523
190.701,367230
191.636,366939
192.57,366649
193.505,366362
194.439,366076
195.372,365792
196.305,365509
197.238,365229
198.17,364950
199.102,364674
200.034,364399
200.965,364125
201.896,363854
202.827,363584
203.757,363315
204.687,363048
205.616,362782
206.545,362519
207.474,362256
208.402,361996
209.33,361737
210.257,361479
211.185,361223
212.111,360968
213.038,360715
213.964,360462
214.89,360212
215.815,359962
216.74,359715
217.664,359469
218.589,359224
219.512,358981
220.436,358740
221.359,358499
222.282,358260
223.204,358022
224.126,357785
225.048,357549
225.969,357314
226.89,357081
227.81,356849
228.73,356618
229.65,356389
230.569,356160
231.488,355933
232.407,355708
233.325,355483
234.243,355260
235.161,355038
236.078,354817
236.995,354597
237.911,354378
238.827,354160
239.743,353944
240.658,353728
241.573,353514
242.488,353300
243.402,353088
244.316,352877
245.229,352666
246.143,352457
247.055,352248
247.968,352041
248.88,351835
249.791,351629
250.703,351424
251.614,351220
252.524,351018
253.434,350816
254.344,350615
255.254,350415
256.163,350217
257.072,350019
257.98,349822
258.888,349626
259.796,349430
260.703,349234
261.61,349040
262.516,348845
263.423,348652
264.329,348459
265.234,348267
266.139,348076
267.044,347886
267.948,347698
268.852,347510
269.756,347323
270.659,347138
271.562,346952
272.465,346768
273.367,346584
274.269,346401
275.17,346218
276.071,346035
276.972,345854
277.872,345673
278.773,345493
279.672,345314
280.572,345135
281.47,344958
282.369,344781
283.267,344605
284.165,344429
285.063,344255
285.96,344081
286.857,343907
287.753,343735
288.649,343563
289.545,343391
290.44,343220
291.335,343050
292.23,342881
293.124,342712
294.018,342544
294.912,342377
295.805,342210
296.698,342044
297.59,341878
298.482,341714
299.374,341549
300.265,341386
301.156,341223
302.047,341060
302.937,340899
303.827,340737
304.717,340577
305.606,340417
306.495,340258
307.384,340100
308.272,339942
309.16,339785
310.047,339628
310.934,339472
311.821,339316
312.708,339161
313.594,339006
314.479,338852
315.365,338698
316.25,338544
317.134,338392
318.019,338239
318.903,338088
319.786,337937
320.669,337787
321.552,337637
322.435,337488
323.317,337340
324.199,337192
325.08,337045
325.961,336898
326.842,336752
327.722,336606
328.602,336461
329.482,336316
330.361,336171
331.24,336028
332.119,335884
332.997,335742
333.875,335599
334.753,335457
335.63,335316
336.507,335175
337.383,335035
338.26,334895
339.135,334756
340.011,334616
340.886,334478
341.761,334339
342.635,334202
343.509,334064
344.383,333927
345.256,333790
346.129,333654
347.002,333519
347.874,333383
348.746,333249
349.618,333115
350.489,332982
351.36,332849
352.23,332717
353.101,332585
353.97,332454
354.84,332323
355.709,332193
356.578,332063
357.446,331933
358.314,331803
359.182,331674
360.05,331545
360.917,331416
361.783,331288
362.65,331160
363.516,331033
364.381,330906
365.247,330779
366.112,330654
366.976,330528
367.841,330403
368.705,330279
369.568,330154
370.431,330031
371.294,329907
372.157,329784
373.019,329661
373.881,329539
374.742,329417
375.604,329295
376.464,329174
377.325,329053
378.185,328932
379.045,328812
379.904,328693
380.763,328573
381.622,328455
382.481,328336
383.339,328218
384.196,328100
385.054,327983
385.911,327866
386.767,327749
387.624,327632
388.48,327516
389.335,327400
390.191,327285
391.046,327169
391.9,327055
392.755,326940
393.609,326826
394.462,326712
395.315,326599
396.168,326486
397.021,326373
397.873,326261
398.725,326149
399.577,326037
400.428,325926
401.279,325815
402.129,325704
402.979,325594
403.829,325484
404.679,325374
405.528,325264
406.377,325155
407.225,325047
408.073,324938
408.921,324830
409.769,324722
410.616,324614
411.462,324507
412.309,324400
413.155,324294
414.001,324187
414.846,324081
415.691,323975
416.536,323870
417.38,323765
418.224,323660
419.068,323555
419.911,323451
420.755,323347
421.597,323243
422.44,323139
423.282,323036
424.123,322934
424.965,322831
425.806,322729
426.646,322627
427.487,322525
428.327,322424
429.166,322323
430.006,322222
430.845,322121
431.683,322021
432.522,321921
433.36,321821
434.197,321721
435.035,321622
435.872,321523
436.708,321424
437.545,321325
438.381,321227
439.216,321129
440.052,321032
440.886,320935
441.721,320838
442.555,320741
443.389,320644
444.223,320548
445.056,320452
445.889,320356
446.722,320260
447.554,320165
448.386,320070
449.218,319975
450.049,319880
450.88,319786
451.711,319691
452.541,319597
453.371,319503
454.2,319410
455.03,319317
455.859,319224
456.687,319131
457.516,319039
458.344,318947
459.171,318855
459.998,318764
460.825,318672
461.652,318581
462.478,318490
463.304,318400
464.13,318309
464.955,318219
465.78,318129
466.605,318039
467.429,317949
468.253,317859
469.077,317770
469.9,317681
470.723,317592
471.546,317503
472.368,317415
473.19,317327
474.012,317239
474.833,317151
475.654,317064
476.475,316976
477.295,316889
478.115,316803
478.935,316716
479.754,316630
480.573,316543
481.392,316458
482.21,316372
483.028,316286
483.846,316201
484.664,316116
485.481,316031
486.297,315946
487.114,315862
487.93,315777
488.746,315693
489.561,315609
490.376,315525
491.191,315442
492.005,315358
492.819,315275
493.633,315192
494.447,315109
495.26,315027
496.073,314944
496.885,314862
497.697,314780
498.509,314698
499.321,314617
500.132,314536
500.943,314455
501.753,314374
502.563,314293
503.373,314213
504.183,314133
504.992,314052
505.801,313972
506.61,313893
507.418,313813
508.226,313734
509.033,313654
509.841,313575
510.648,313496
511.454,313417
512.261,313339
513.067,313260
513.872,313182
514.678,313104
515.483,313026
516.287,312948
517.092,312871
517.896,312793
518.7,312716
519.503,312639
520.306,312562
521.109,312486
521.911,312409
522.713,312333
523.515,312257
524.317,312181
525.118,312105
525.919,312029
526.719,311954
527.519,311879
528.319,311803
529.119,311729
529.918,311654
530.717,311579
531.515,311505
532.314,311430
533.112,311356
533.909,311282
534.707,311209
535.504,311135
536.3,311062
537.097,310988
537.893,310915
538.688,310842
539.484,310769
540.279,310697
541.073,310624
541.868,310552
542.662,310480
543.456,310408
544.249,310336
545.043,310264
545.835,310192
546.628,310121
547.42,310049
547.42,310049
548.212,309978
549.004,309907
549.795,309837
550.586,309766
551.376,309696
552.167,309625
552.957,309555
553.746,309485
554.536,309415
555.325,309345
556.113,309276
556.902,309206
557.69,309137
558.478,309068
559.265,308999
560.052,308930
560.839,308861
561.625,308792
562.412,308724
563.198,308655
563.983,308587
564.768,308519
565.553,308452
566.338,308384
567.122,308316
567.906,308249
568.69,308181
569.473,308114
570.256,308047
571.039,307980
571.821,307913
572.603,307846
573.385,307780
574.167,307714
574.948,307647
575.729,307581
576.509,307515
577.289,307449
578.069,307383
578.849,307318
579.628,307252
580.407,307187
581.186,307122
581.964,307057
582.742,306992
583.52,306927
584.297,306862
585.074,306798
585.851,306733
586.628,306669
587.404,306605
588.18,306541
588.955,306477
589.73,306414
590.505,306350
591.28,306286
592.054,306223
592.828,306159
593.602,306096
594.375,306033
595.148,305971
595.921,305908
596.693,305845
597.465,305783
598.237,305720
599.009,305658
599.78,305596
600.551,305534
601.321,305472
602.092,305410
602.862,305348
603.631,305287
604.401,305226
605.17,305164
605.938,305103
606.707,305042
607.475,304981
608.243,304920
609.01,304859
609.777,304798
610.544,304738
611.311,304678
612.077,304617
612.843,304557
613.608,304497
614.374,304437
615.139,304377
615.904,304318
616.668,304258
617.432,304198
618.196,304139
618.959,304080
619.723,304021
620.485,303962
621.248,303903
622.01,303844
622.772,303786
623.534,303727
624.295,303669
625.056,303610
625.817,303552
626.577,303494
627.338,303436
628.097,303378
628.857,303320
629.616,303263
630.375,303205
631.134,303147
631.892,303090
631.892,303090
632.65,303033
633.408,302975
634.165,302918
634.922,302861
635.679,302804
636.435,302748
637.191,302691
637.947,302635
638.703,302578
639.458,302522
640.213,302466
640.968,302409
641.722,302353
642.476,302297
643.23,302241
643.983,302185
644.736,302130
645.489,302075
646.242,302019
646.994,301964
647.746,301909
648.498,301854
649.249,301798
650,301743
650.751,301688
651.501,301634
652.251,301579
653.001,301524
653.751,301470
654.5,301416
655.249,301362
655.997,301307
656.746,301253
657.494,301199
658.241,301145
658.989,301092
659.736,301038
660.483,300984
661.229,300930
661.976,300877
662.721,300824
663.467,300771
664.212,300718
664.957,300665
665.702,300612
666.447,300559
667.191,300506
667.935,300454
668.678,300401
669.421,300348
670.164,300296
670.907,300243
671.649,300191
672.391,300139
673.133,300087
673.874,300036
674.616,299984
675.356,299932
676.097,299880
676.837,299829
677.577,299777
678.317,299726
679.056,299674
679.056,299674
679.795,299623
680.534,299572
681.273,299521
682.011,299470
682.749,299419
683.486,299368
684.223,299318
684.96,299267
685.697,299217
686.434,299166
687.17,299115
687.906,299065
688.641,299015
689.376,298965
690.111,298915
690.846,298865
691.58,298815
692.314,298766
693.048,298716
693.781,298667
694.515,298617
695.247,298568
695.98,298518
696.712,298469
697.444,298420
698.176,298370
698.907,298321
699.638,298273
700.369,298224
701.1,298175
701.83,298127
702.56,298078
703.29,298030
704.019,297981
704.748,297933
705.477,297884
706.205,297836
706.933,297788
707.661,297739
708.389,297691
709.116,297643
709.843,297595
710.57,297548
711.296,297500
712.022,297453
712.748,297405
713.474,297358
714.199,297311
714.924,297263
715.649,297216
716.373,297169
717.097,297122
717.821,297075
718.545,297028
719.268,296981
719.991,296934
720.713,296888
721.436,296841
722.158,296795
722.88,296748
723.601,296702
724.322,296656
725.043,296610
725.764,296563
726.484,296517
727.204,296471
727.924,296425
728.643,296379
729.362,296333
730.081,296288
730.8,296242
731.518,296197
732.236,296151
732.954,296106
733.671,296061
734.389,296015
735.106,295970
735.822,295925
736.538,295880
737.254,295835
737.97,295790
738.686,295745
739.401,295700
740.116,295655
740.83,295611
741.544,295566
742.258,295522
742.972,295477
743.685,295433
744.399,295389
745.112,295345
745.824,295301
746.536,295256
747.248,295212
747.96,295168
748.671,295124
749.383,295080
750.093,295036
750.804,294993
751.514,294949
752.224,294906
752.934,294862
753.643,294819
754.353,294776
755.061,294733
755.77,294689
756.478,294646
757.186,294603
757.894,294560
758.601,294517
759.309,294474
760.015,294431
760.722,294388
761.428,294345
762.134,294303
762.84,294260
763.546,294218
764.251,294176
764.956,294133
765.66,294091
766.365,294049
767.069,294007
767.772,293965
768.476,293922
769.179,293880
769.882,293838
770.585,293796
771.287,293754
771.989,293713
772.691,293671
773.392,293630
774.093,293588
774.794,293547
775.495,293506
776.195,293464
776.896,293423
777.595,293382
778.295,293341
778.994,293300
779.693,293258
780.392,293217
781.09,293176
781.788,293135
782.486,293094
783.184,293054
783.881,293013
784.578,292972
785.275,292932
785.971,292892
786.667,292851
787.363,292811
788.059,292771
788.754,292731
789.449,292690
790.144,292650
790.839,292610
791.533,292570
792.227,292530
792.92,292489
793.614,292450
794.307,292410
795,292370
795.692,292330
796.384,292291
797.076,292251
797.768,292212
798.46,292173
799.151,292133
799.842,292094
800.532,292055
801.223,292016
801.913,291976
802.602,291937
803.292,291898
803.981,291859
804.67,291820
805.359,291781
806.047,291742
806.735,291703
807.423,291664
808.111,291626
808.798,291587
809.485,291549
810.172,291511
810.858,291472
811.544,291434
812.23,291395
812.916,291357
813.601,291319
814.286,291280
814.971,291242
815.656,291204
816.34,291166
817.024,291128
817.708,291090
818.391,291052
819.074,291014
819.757,290977
820.44,290939
821.122,290902
821.804,290864
822.486,290827
823.167,290789
823.849,290752
824.53,290714
825.21,290677
825.891,290640
826.571,290602
827.251,290565
827.93,290528
828.61,290490
829.289,290453
829.968,290416
830.646,290380
831.324,290343
832.002,290306
832.68,290270
833.357,290233
834.035,290197
834.712,290160
835.388,290124
836.065,290087
836.741,290051
837.416,290014
838.092,289978
838.767,289941
839.442,289905
840.117,289868
840.791,289832
841.466,289796
842.139,289760
842.813,289724
843.486,289688
844.16,289653
844.832,289617
845.505,289581
846.177,289546
846.849,289510
847.521,289474
848.192,289439
848.864,289403
849.535,289367
850.205,289332
850.876,289296
851.546,289261
852.216,289225
852.885,289190
853.555,289154
854.224,289119
854.892,289084
855.561,289049
856.229,289014
856.897,288979
857.565,288945
858.232,288910
858.899,288875
859.566,288840
860.23,288806
860.9,288771
861.57,288736
862.23,288701
862.9,288666
863.56,288632
864.23,288597
864.89,288563
865.56,288528
866.22,288494
866.88,288460
867.55,288425
868.21,288391
868.88,288357
869.54,288323
870.2,288290
870.86,288256
871.53,288222
872.19,288188
872.85,288154
873.51,288120
874.17,288086
874.83,288052
875.49,288018
876.15,287984
876.81,287951
877.47,287917
878.13,287883
878.79,287850
879.45,287816
880.11,287783
880.77,287750
881.42,287717
882.08,287683
882.74,287650
883.4,287617
884.05,287584
884.71,287551
885.37,287518
886.02,287485
886.68,287452
887.34,287419
887.99,287386
888.65,287353
889.3,287320
889.96,287287
890.61,287254
891.27,287221
891.92,287189
892.57,287156
893.23,287124
893.88,287091
894.53,287059
895.18,287027
895.84,286994
896.49,286962
897.14,286930
897.79,286898
898.44,286866
899.1,286833
899.75,286801
900.4,286769
901.05,286737
901.7,286705
902.35,286673
903,286640
903.65,286608
904.29,286577
904.94,286545
905.59,286513
906.24,286481
906.89,286450
907.53,286418
908.18,286387
908.83,286355
909.48,286324
910.12,286292
910.77,286261
911.42,286230
912.06,286198
912.71,286167
913.35,286136
914,286104
914.64,286073
915.29,286041
915.93,286010
916.57,285979
917.22,285948
917.86,285917
918.51,285886
919.15,285855
919.79,285824
920.43,285793
921.08,285762
921.72,285732
922.36,285701
923,285671
923.64,285640
924.28,285610
924.92,285579
925.56,285548
926.2,285518
926.84,285487
927.48,285457
928.12,285426
928.76,285396
929.4,285365
930.04,285335
930.68,285304
931.32,285274
931.95,285244
932.59,285214
933.23,285184
933.87,285154
934.5,285124
935.14,285094
935.78,285064
936.41,285034
937.05,285005
937.68,284975
938.32,284945
938.95,284915
939.59,284886
940.22,284856
940.86,284826
941.49,284796
942.13,284767
942.76,284737
943.39,284707
944.03,284677
944.66,284648
945.29,284618
945.92,284589
946.55,284559
947.19,284530
947.82,284501
948.45,284472
949.08,284443
949.71,284414
950.34,284385
950.97,284356
951.6,284327
952.23,284298
952.86,284269
953.49,284240
954.12,284211
954.75,284182
955.38,284153
956,284124
956.63,284095
957.26,284066
957.89,284037
958.51,284008
959.14,283980
959.77,283951
960.39,283922
961.02,283894
961.65,283865
962.27,283837
962.9,283809
963.52,283780
964.15,283752
964.77,283724
965.4,283696
966.02,283668
966.64,283639
967.27,283611
967.89,283583
968.52,283555
969.14,283527
969.76,283499
970.38,283470
971.01,283442
971.63,283414
972.25,283386
972.87,283358
973.49,283330
974.11,283302
974.73,283274
975.35,283246
975.97,283219
976.59,283191
977.21,283163
977.83,283136
978.45,283108
979.07,283081
979.69,283053
980.31,283026
980.93,282999
981.54,282971
982.16,282944
982.78,282916
983.4,282889
984.01,282861
984.63,282834
985.25,282807
985.86,282779
986.48,282752
987.09,282724
987.71,282697
988.33,282670
988.94,282643
989.56,282615
990.17,282588
990.78,282561
991.4,282535
992.01,282508
992.63,282481
993.24,282454
993.85,282427
994.46,282401
995.08,282374
995.69,282348
996.3,282321
996.91,282294
997.52,282268
998.14,282241
998.75,282215
999.36,282188
999.97,282161
1000.58,282135
1001.19,282108
1001.8,282081
1002.41,282055
1003.02,282028
1003.63,282002
1004.24,281976
1004.84,281949
1005.45,281923
1006.06,281897
1006.67,281870
1007.28,281844
1007.88,281818
1008.49,281792
1009.1,281766
1009.7,281740
1010.31,281714
1010.92,281689
1011.52,281663
1012.13,281637
1012.73,281611
1013.34,281585
1013.94,281559
1014.55,281533
1015.15,281507
1015.76,281482
1016.36,281456
1016.96,281430
1017.57,281404
1018.17,281378
1018.77,281353
1019.38,281327
1019.98,281301
1020.58,281276
1021.18,281250
1021.79,281225
1022.39,281199
1022.99,281174
1023.59,281149
1024.19,281123
1024.79,281098
1025.39,281073
1025.99,281048
1026.59,281023
1027.19,280998
1027.79,280972
1028.39,280947
1028.99,280922
1029.59,280897
1030.19,280872
1030.78,280847
1031.38,280822
1031.98,280797
1032.58,280772
1033.17,280746
1033.77,280721
1034.37,280696
1034.96,280672
1035.56,280647
1036.16,280622
1036.75,280597
1037.35,280572
1037.94,280547
1038.54,280523
1039.13,280498
1039.73,280474
1040.32,280449
1040.92,280425
1041.51,280400
1042.1,280376
1042.7,280351
1043.29,280327
1043.88,280302
1044.48,280278
1045.07,280253
1045.66,280229
1046.25,280205
1046.84,280180
1047.44,280156
1048.03,280131
1048.62,280107
1049.21,280083
1049.8,280058
1050.39,280034
1050.98,280010
1051.57,279986
1052.16,279962
1052.75,279938
1053.34,279913
1053.93,279890
1054.52,279866
1055.1,279842
1055.69,279818
1056.28,279794
1056.87,279770
1057.45,279746
1058.04,279723
1058.63,279699
