x(mm),Q (W/m2)
0,1420060
1.517,1191240
3.03399999999999,867921
4.54900000000001,703260
6.06399999999999,631111
7.57799999999997,629626
9.09,624672
10.602,611619
12.113,597131
13.623,583901
15.132,572206
16.641,561822
18.148,552537
19.654,544187
21.16,536633
22.664,529764
24.168,523481
25.671,517701
27.173,512354
28.674,507382
30.174,502740
31.673,498388
33.171,494293
34.669,490428
36.165,486767
37.661,483293
39.155,479989
40.649,476839
42.142,473829
43.634,470951
45.125,468193
46.615,465544
48.105,462998
49.593,460549
51.081,458190
52.567,455916
54.053,453719
55.538,451596
57.022,449543
58.505,447554
59.987,445627
61.468,443757
62.948,441942
64.428,440180
65.906,438468
67.384,436804
68.861,435184
70.337,433606
71.812,432068
73.286,430568
74.759,429107
76.231,427682
77.703,426291
79.173,424933
80.643,423605
82.112,422306
83.58,421036
85.047,419793
86.513,418578
87.978,417389
89.443,416224
90.906,415083
92.369,413965
93.831,412869
95.291,411794
96.751,410739
98.211,409704
99.669,408688
101.126,407692
102.583,406713
104.038,405752
105.493,404807
106.947,403879
108.4,402966
109.852,402068
111.303,401185
112.753,400317
114.203,399463
115.651,398624
117.099,397798
118.546,396986
119.992,396186
121.437,395398
122.881,394622
124.325,393857
125.767,393103
127.209,392359
128.65,391624
130.09,390900
131.529,390185
132.967,389481
134.404,388787
135.841,388103
137.276,387429
138.711,386765
140.145,386109
141.578,385463
143.01,384824
144.441,384193
145.872,383570
147.301,382953
148.73,382343
150.158,381739
151.585,381143
153.011,380555
154.436,379974
155.86,379401
157.284,378836
158.707,378278
160.128,377726
161.549,377180
162.969,376639
164.389,376105
165.807,375576
167.225,375053
168.641,374537
170.057,374026
171.472,373521
172.886,373020
174.3,372525
175.712,372034
177.124,371549
178.534,371069
179.944,370594
181.353,370124
182.761,369659
184.169,369199
185.575,368744
186.981,368292
188.386,367845
189.79,367403
191.193,366964
192.595,366530
193.997,366099
195.397,365673
196.797,365250
198.196,364832
199.594,364417
200.991,364006
202.387,363599
203.783,363195
205.178,362796
206.571,362400
207.964,362007
209.357,361619
210.748,361233
212.138,360851
213.528,360471
214.917,360095
216.305,359722
217.692,359352
219.078,358984
220.464,358620
221.849,358260
223.232,357902
224.615,357548
225.997,357196
227.379,356847
228.759,356501
230.139,356158
231.518,355817
232.896,355479
234.273,355143
235.649,354810
237.025,354480
238.399,354152
239.773,353827
241.146,353504
242.519,353184
243.89,352866
245.26,352551
246.63,352238
247.999,351928
249.367,351619
250.734,351313
252.101,351008
253.466,350706
254.831,350405
256.195,350106
257.558,349808
258.921,349512
260.282,349217
261.643,348925
263.003,348634
264.362,348345
265.72,348058
267.077,347774
268.434,347491
269.79,347210
271.145,346932
272.499,346655
273.852,346379
275.205,346105
276.556,345833
277.907,345562
279.257,345292
280.607,345024
281.955,344758
283.303,344493
284.65,344231
285.996,343969
287.341,343710
288.685,343452
290.029,343195
291.372,342940
292.714,342686
294.055,342434
295.395,342183
296.735,341933
298.073,341685
299.411,341439
300.748,341194
302.085,340950
303.42,340709
304.755,340468
306.089,340229
307.422,339992
308.754,339755
310.086,339520
311.417,339285
312.747,339052
314.076,338821
315.404,338590
316.731,338360
318.058,338132
319.384,337905
320.709,337680
322.033,337456
323.357,337232
324.68,337011
326.002,336791
327.323,336571
328.643,336353
329.963,336136
331.281,335921
332.599,335706
333.916,335493
335.233,335280
336.548,335068
337.863,334858
339.177,334649
340.49,334440
341.803,334233
343.114,334026
344.425,333820
345.735,333616
347.045,333412
348.353,333209
349.661,333008
350.968,332808
352.274,332609
353.579,332412
354.884,332215
356.187,332020
357.49,331826
358.792,331633
360.094,331440
361.394,331248
362.694,331057
363.993,330866
365.292,330677
366.589,330488
367.886,330299
369.182,330112
370.477,329926
371.771,329741
373.065,329557
374.358,329374
375.65,329192
376.941,329010
378.231,328830
379.521,328650
380.81,328471
382.098,328293
383.385,328115
384.672,327938
385.958,327762
387.243,327587
388.527,327413
389.811,327239
391.093,327066
392.375,326894
393.656,326724
394.937,326554
396.216,326384
397.495,326215
398.773,326047
400.051,325880
401.327,325713
402.603,325547
403.878,325382
405.152,325218
406.426,325054
407.699,324891
408.971,324729
410.242,324568
411.512,324407
412.782,324246
414.051,324087
415.319,323927
416.586,323769
417.853,323612
419.119,323455
420.384,323299
421.648,323143
422.912,322987
424.175,322833
425.437,322679
426.698,322526
427.958,322374
429.218,322222
430.477,322071
431.735,321920
432.993,321771
434.25,321622
435.506,321474
436.761,321326
438.015,321178
439.269,321030
440.522,320884
441.774,320738
443.026,320594
444.276,320449
445.526,320305
446.775,320161
448.024,320018
449.272,319876
450.518,319735
451.765,319594
453.01,319454
454.255,319314
455.499,319174
456.742,319035
457.984,318896
459.226,318758
460.467,318621
461.707,318484
462.947,318347
464.185,318211
465.423,318075
466.661,317939
467.897,317805
469.133,317672
470.368,317539
471.602,317406
472.835,317273
474.068,317141
475.3,317009
476.531,316879
477.762,316749
478.992,316620
480.221,316491
481.449,316362
482.677,316233
483.904,316105
485.13,315977
486.355,315850
487.58,315724
488.803,315599
490.027,315473
491.249,315348
492.471,315223
493.692,315098
494.912,314973
496.131,314850
497.35,314727
498.568,314605
499.785,314483
501.002,314361
502.218,314239
503.433,314117
504.647,313996
505.861,313876
507.074,313757
508.286,313639
509.497,313520
510.708,313402
511.918,313284
513.127,313166
514.335,313048
515.543,312932
516.75,312816
517.957,312700
519.162,312585
520.367,312470
521.571,312355
522.775,312239
523.977,312124
525.179,312010
526.381,311897
527.581,311784
528.781,311672
529.98,311560
531.178,311449
532.376,311337
533.573,311225
534.769,311114
535.965,311004
537.159,310894
538.353,310785
539.547,310677
540.739,310568
541.931,310460
543.122,310352
544.313,310243
545.503,310135
546.692,310028
547.88,309922
549.067,309816
550.254,309711
551.44,309606
552.626,309500
553.811,309395
554.995,309290
556.178,309184
557.361,309080
558.542,308976
559.724,308873
560.904,308770
562.084,308668
563.263,308566
564.441,308463
565.619,308361
566.796,308258
567.972,308156
569.147,308055
570.322,307954
571.496,307854
572.67,307755
573.842,307656
575.014,307557
576.186,307458
577.356,307358
578.526,307259
579.695,307161
580.863,307063
582.031,306966
583.198,306869
584.365,306773
585.53,306677
586.695,306581
587.859,306485
589.023,306388
590.186,306292
591.348,306196
592.509,306101
593.67,306006
594.83,305913
595.989,305819
597.148,305726
598.306,305633
599.463,305540
600.62,305446
601.775,305352
602.931,305259
604.085,305166
605.239,305074
606.392,304983
607.544,304892
608.696,304801
609.847,304711
610.997,304621
612.147,304530
613.296,304439
614.444,304348
615.591,304258
616.738,304168
617.884,304079
619.03,303991
620.175,303903
621.319,303816
622.462,303728
623.605,303641
624.747,303553
625.888,303465
627.029,303377
628.169,303289
629.308,303202
630.447,303116
631.584,303030
632.722,302945
633.858,302860
634.994,302775
636.129,302690
637.264,302605
638.397,302520
639.531,302435
640.663,302349
641.795,302265
642.926,302181
644.056,302098
645.186,302015
646.315,301933
647.443,301851
648.571,301769
649.698,301686
650.824,301604
651.95,301521
653.075,301438
654.199,301356
655.323,301274
656.445,301193
657.568,301112
658.689,301032
659.81,300953
660.93,300873
662.05,300793
663.169,300714
664.287,300634
665.405,300554
666.521,300474
667.638,300394
668.753,300314
669.868,300235
670.982,300157
672.096,300080
673.208,300002
674.321,299925
675.432,299848
676.543,299771
677.653,299694
678.762,299616
679.871,299539
680.979,299461
682.087,299384
683.194,299308
684.3,299232
685.405,299156
686.51,299081
687.614,299007
688.718,298932
689.821,298858
690.923,298783
692.024,298708
693.125,298634
694.225,298559
695.325,298484
696.424,298409
697.522,298335
698.619,298261
699.716,298188
700.812,298116
701.908,298043
703.003,297971
704.097,297899
705.191,297827
706.283,297754
707.376,297682
708.467,297609
709.558,297536
710.649,297464
711.738,297392
712.827,297320
713.915,297249
715.003,297179
716.09,297109
717.176,297039
718.262,296969
719.347,296900
720.432,296830
721.515,296760
722.598,296690
723.681,296620
724.763,296550
725.844,296480
726.924,296410
728.004,296341
729.083,296273
730.162,296205
731.24,296137
732.317,296069
733.393,296002
734.469,295935
735.545,295867
736.619,295799
737.693,295732
738.767,295664
739.839,295596
740.911,295528
741.983,295461
743.053,295394
744.124,295327
745.193,295262
746.262,295196
747.33,295131
748.398,295066
749.464,295001
750.531,294936
751.596,294871
752.661,294805
753.726,294740
754.789,294674
755.852,294609
756.915,294543
757.977,294478
759.038,294413
760.098,294349
761.158,294285
762.217,294222
763.276,294159
764.334,294096
765.391,294033
766.448,293970
767.504,293907
768.559,293844
769.614,293780
770.668,293717
771.722,293654
772.775,293590
773.827,293527
774.878,293465
775.929,293402
776.98,293341
778.029,293279
779.078,293218
780.127,293157
781.175,293097
782.222,293036
783.268,292976
784.314,292915
785.359,292854
786.404,292793
787.448,292732
788.492,292671
789.534,292610
790.577,292549
791.618,292489
792.659,292429
793.699,292369
794.739,292310
795.778,292251
796.816,292192
797.854,292134
798.891,292075
799.928,292017
800.963,291958
801.999,291899
803.033,291841
804.067,291782
805.101,291723
806.133,291664
807.166,291605
808.197,291546
809.228,291488
810.258,291430
811.288,291372
812.317,291315
813.346,291258
814.373,291202
815.401,291145
816.427,291089
817.453,291033
818.478,290976
819.503,290920
820.527,290863
821.551,290806
822.574,290749
823.596,290693
824.617,290636
825.639,290579
826.659,290523
827.679,290467
828.698,290412
829.716,290356
830.734,290301
831.752,290247
832.768,290192
833.785,290138
834.8,290083
835.815,290029
836.829,289975
837.843,289920
838.856,289865
839.868,289811
840.88,289756
841.892,289701
842.902,289647
843.912,289592
844.922,289538
845.93,289484
846.939,289431
847.946,289378
848.953,289325
849.96,289272
850.965,289220
851.971,289167
852.975,289115
853.979,289063
854.982,289010
855.985,288957
856.987,288905
857.989,288852
858.99,288799
859.99,288747
860.99,288694
861.99,288642
862.99,288589
863.99,288537
864.98,288486
865.98,288434
866.98,288383
867.97,288332
868.97,288281
869.96,288231
870.95,288180
871.95,288130
872.94,288079
873.93,288029
874.92,287978
875.91,287927
876.9,287876
877.89,287826
878.88,287775
879.87,287724
880.86,287674
881.85,287623
882.83,287573
883.82,287523
884.8,287474
885.79,287424
886.77,287375
887.76,287326
888.74,287278
889.72,287229
890.7,287181
891.68,287132
892.67,287083
893.65,287035
894.63,286986
895.6,286937
896.58,286888
897.56,286839
898.54,286791
899.51,286742
900.49,286693
901.47,286645
902.44,286597
903.41,286549
904.39,286501
905.36,286453
906.33,286406
907.3,286359
908.28,286313
909.25,286266
910.22,286219
911.19,286173
912.16,286126
913.12,286079
914.09,286032
915.06,285985
916.03,285938
916.99,285891
917.96,285844
918.92,285797
919.89,285750
920.85,285703
921.81,285656
922.78,285610
923.74,285564
924.7,285518
925.66,285472
926.62,285427
927.58,285382
928.54,285337
929.5,285292
930.45,285248
931.41,285203
932.37,285158
933.32,285114
934.28,285069
935.24,285024
936.19,284978
937.14,284933
938.1,284888
939.05,284842
940,284797
940.95,284752
941.9,284707
942.85,284662
943.8,284617
944.75,284573
945.7,284528
946.65,284485
947.6,284441
948.55,284398
949.49,284355
950.44,284312
951.38,284269
952.33,284227
953.27,284184
954.22,284141
955.16,284098
956.1,284055
957.04,284012
957.98,283969
958.92,283925
959.87,283882
960.8,283838
961.74,283795
962.68,283751
963.62,283708
964.56,283664
965.49,283621
966.43,283578
967.37,283536
968.3,283494
969.24,283452
970.17,283410
971.1,283369
972.04,283327
972.97,283286
973.9,283245
974.83,283204
975.76,283163
976.69,283122
977.62,283081
978.55,283040
979.48,282999
980.41,282958
981.33,282916
982.26,282874
983.19,282833
984.11,282791
985.04,282749
985.96,282708
986.89,282666
987.81,282625
988.73,282584
989.65,282543
990.58,282502
991.5,282462
992.42,282421
993.34,282382
994.26,282342
995.18,282302
996.09,282263
997.01,282224
997.93,282184
998.85,282145
999.76,282106
1000.68,282067
1001.59,282027
1002.51,281988
1003.42,281948
1004.33,281909
1005.25,281869
1006.16,281830
1007.07,281790
1007.98,281750
1008.89,281711
1009.8,281671
1010.71,281631
1011.62,281592
1012.53,281553
1013.44,281514
1014.35,281475
1015.25,281436
1016.16,281397
1017.06,281359
1017.97,281321
1018.87,281283
1019.78,281245
1020.68,281207
1021.59,281169
1022.49,281131
1023.39,281093
1024.29,281055
1025.19,281017
1026.09,280979
1026.99,280942
1027.89,280904
1028.79,280866
1029.69,280829
1030.59,280791
1031.48,280753
1032.38,280716
1033.28,280678
1034.17,280641
1035.07,280603
1035.96,280566
1036.85,280529
1037.75,280492
1038.64,280455
1039.53,280418
1040.42,280381
1041.31,280344
1042.21,280307
1043.1,280271
1043.99,280234
1044.87,280197
1045.76,280160
1046.65,280124
1047.54,280087
1048.42,280050
1049.31,280014
1050.2,279978
1051.08,279941
1051.97,279905
1052.85,279869
1053.73,279833
1054.62,279797
1055.5,279762
1056.38,279726
1057.26,279690
1058.15,279655
1059.03,279619
1059.91,279584
1060.78,279549
1061.66,279514
1062.54,279479
1063.42,279444
1064.3,279409
1065.17,279374
1066.05,279339
1066.93,279304
1067.8,279268
1068.68,279233
1069.55,279198
1070.42,279162
1071.3,279127
1072.17,279091
1073.04,279056
1073.91,279020
1074.78,278985
1075.65,278949
1076.52,278914
1077.39,278879
1078.26,278844
1079.13,278810
1080,278775
1080.87,278741
1081.73,278707
1082.6,278673
1083.46,278640
1084.33,278606
1085.19,278573
1086.06,278540
1086.92,278507
1087.79,278475
1088.65,278442
1089.51,278409
1090.37,278377
1091.23,278344
1092.09,278311
1092.95,278278
1093.81,278244
1094.67,278211
1095.53,278177
1096.39,278143
1097.25,278109
1098.1,278075
1098.96,278041
1099.82,278006
1100.67,277972
1101.53,277938
1102.38,277904
1103.23,277869
1104.09,277835
1104.94,277802
1105.79,277768
1106.64,277735
1107.5,277701
1108.35,277669
1109.2,277636
1110.05,277604
1110.9,277572
1111.74,277541
1112.59,277509
1113.44,277478
1114.29,277448
1115.13,277417
1115.98,277386
1116.83,277356
1117.67,277325
1118.52,277294
1119.36,277264
1120.2,277233
1121.05,277201
1121.89,277170
1122.73,277138
1123.57,277106
1124.41,277074
1125.25,277042
1126.09,277009
1126.93,276977
1127.77,276944
1128.61,276911
1129.45,276878
1130.29,276845
1131.12,276812
1131.96,276779
1132.8,276746
1133.63,276714
1134.47,276681
1135.3,276649
1136.14,276617
1136.97,276586
1137.8,276555
1138.64,276524
1139.47,276494
1140.3,276464
1141.13,276434
1141.96,276405
1142.79,276376
1143.62,276347
1144.45,276318
1145.28,276289
1146.11,276261
1146.93,276232
1147.76,276203
1148.59,276174
1149.41,276145
1150.24,276116
1151.06,276087
1151.89,276057
1152.71,276027
1153.54,275997
1154.36,275966
1155.18,275936
1156,275905
1156.82,275874
1157.65,275843
1158.47,275811
1159.29,275780
1160.11,275748
1160.92,275717
1161.74,275685
1162.56,275654
1163.38,275623
1164.2,275592
1165.01,275561
1165.83,275530
1166.64,275500
1167.46,275470
1168.27,275440
1169.09,275411
1169.9,275382
1170.72,275353
1171.53,275325
1172.34,275297
1173.15,275269
1173.96,275241
1174.77,275214
1175.58,275187
1176.39,275159
1177.2,275132
1178.01,275105
1178.82,275078
1179.63,275051
1180.44,275024
1181.24,274997
1182.05,274969
1182.86,274941
1183.66,274914
1184.47,274886
1185.27,274858
1186.07,274829
1186.88,274801
1187.68,274772
1188.48,274743
1189.28,274713
1190.09,274684
1190.89,274654
1191.69,274625
1192.49,274595
1193.29,274565
1194.09,274536
1194.89,274506
1195.68,274477
1196.48,274447
1197.28,274418
1198.08,274389
1198.87,274360
1199.67,274331
1200.46,274302
1201.26,274274
1202.05,274246
1202.85,274218
1203.64,274191
1204.43,274164
1205.22,274137
1206.02,274110
1206.81,274084
1207.6,274058
1208.39,274032
1209.18,274006
1209.97,273980
1210.76,273955
1211.55,273929
1212.33,273904
1213.12,273879
1213.91,273854
1214.7,273828
1215.48,273803
1216.27,273777
1217.05,273752
1217.84,273726
1218.62,273700
1219.41,273674
1220.19,273647
1220.97,273621
1221.76,273594
1222.54,273567
1223.32,273539
1224.1,273512
1224.88,273484
1225.66,273457
1226.44,273429
1227.22,273401
1228,273373
1228.78,273344
1229.55,273316
1230.33,273288
1231.11,273260
1231.88,273231
1232.66,273203
1233.44,273175
1234.21,273148
1234.99,273120
1235.76,273093
1236.53,273066
1237.31,273039
1238.08,273012
1238.85,272986
1239.62,272960
1240.39,272935
1241.16,272910
1241.94,272885
1242.71,272860
1243.47,272836
1244.24,272812
1245.01,272789
1245.78,272765
1246.55,272742
1247.31,272719
1248.08,272695
1248.85,272672
1249.61,272649
1250.38,272626
1251.14,272603
1251.91,272580
1252.67,272557
1253.43,272533
1254.2,272510
1254.96,272486
1255.72,272462
1256.48,272437
1257.24,272413
1258.01,272388
1258.77,272362
1259.53,272337
1260.28,272311
1261.04,272284
1261.8,272258
1262.56,272231
1263.32,272204
1264.07,272177
1264.83,272149
1265.59,272122
1266.34,272094
1267.1,272067
1267.85,272039
1268.61,272012
1269.36,271984
1270.11,271957
1270.87,271930
1271.62,271904
1272.37,271877
1273.12,271851
1273.87,271826
1274.62,271801
1275.37,271776
1276.12,271752
1276.87,271728
1277.62,271704
1278.37,271681
1279.12,271657
1279.87,271635
1280.61,271613
1281.36,271591
1282.11,271570
1282.85,271548
1283.6,271528
1284.34,271507
1285.09,271486
1285.83,271466
1286.57,271446
1287.32,271425
1288.06,271405
1288.8,271384
1289.54,271363
1290.28,271342
1291.02,271321
1291.76,271299
1292.5,271277
1293.24,271255
1293.98,271232
1294.72,271209
1295.46,271185
1296.2,271161
1296.93,271136
1297.67,271111
1298.41,271086
1299.14,271060
1299.88,271034
1300.61,271008
1301.35,270981
1302.08,270955
1302.82,270928
1303.55,270901
1304.28,270874
1305.01,270847
1305.75,270820
1306.48,270793
1307.21,270767
1307.94,270740
1308.67,270714
1309.4,270689
1310.13,270663
1310.86,270638
1311.58,270615
1312.31,270591
1313.04,270566
1313.77,270542
1314.49,270520
1315.22,270498
1315.95,270477
1316.67,270456
1317.4,270435
1318.12,270415
1318.84,270396
1319.57,270377
1320.29,270358
1321.01,270340
1321.74,270321
1322.46,270303
1323.18,270285
1323.9,270267
1324.62,270250
1325.34,270232
1326.06,270214
1326.78,270195
1327.5,270177
1328.22,270158
1328.93,270139
1329.65,270120
1330.37,270100
1331.09,270080
1331.8,270059
1332.52,270038
1333.23,270016
1333.95,269994
1334.66,269972
1335.38,269948
1336.09,269925
1336.8,269901
1337.52,269877
1338.23,269852
1338.94,269827
1339.65,269801
1340.36,269776
1341.07,269750
1341.78,269724
1342.49,269698
1343.2,269671
1343.91,269646
1344.62,269621
1345.33,269596
1346.04,269570
1346.74,269544
1347.45,269519
1348.16,269494
1348.86,269469
1349.57,269445
1350.27,269421
1350.98,269398
1351.68,269376
1352.39,269354
1353.09,269332
1353.79,269311
1354.49,269291
1355.2,269271
1355.9,269251
1356.6,269233
1357.3,269214
1358,269196
1358.7,269179
1359.4,269162
1360.1,269145
1360.8,269129
1361.5,269112
1362.19,269096
1362.89,269081
1363.59,269065
1364.29,269049
1364.98,269033
1365.68,269018
1366.37,269002
1367.07,268985
1367.76,268969
1368.46,268952
1369.15,268935
1369.84,268918
1370.54,268900
1371.23,268882
1371.92,268863
1372.61,268844
1373.3,268825
1373.99,268804
1374.68,268784
1375.37,268762
1376.06,268741
1376.75,268718
1377.44,268696
1378.13,268673
1378.82,268649
1379.51,268625
1380.19,268601
1380.88,268576
1381.57,268551
1382.25,268526
1382.94,268500
1383.62,268475
1384.31,268450
1384.99,268424
1385.67,268399
1386.36,268374
1387.04,268349
1387.72,268324
1388.41,268299
1389.09,268275
1389.77,268251
1390.45,268228
1391.13,268205
1391.81,268182
1392.49,268160
1393.17,268138
1393.85,268117
1394.53,268097
1395.2,268077
1395.88,268058
1396.56,268039
1397.24,268021
1397.91,268003
1398.59,267986
1399.26,267969
1399.94,267953
1400.61,267938
1401.29,267922
1401.96,267907
1402.63,267893
1403.31,267879
1403.98,267865
