x(mm),Q (W/m2)
0,1691500
1.012,1423690
2.02300000000002,1066880
3.03299999999999,920250
4.04400000000001,843985
5.054,810169
6.06299999999999,780484
7.072,752893
8.08099999999999,728785
9.089,708137
10.097,690394
11.104,675000
12.112,661496
13.118,649519
14.124,638787
15.13,629083
16.136,620238
17.141,612120
18.146,604626
19.15,597672
20.154,591192
21.157,585127
22.16,579433
23.163,574070
24.165,569006
25.167,564210
26.168,559660
27.169,555332
28.17,551209
29.17,547274
30.17,543511
31.169,539908
32.168,536452
33.167,533133
34.165,529941
35.163,526869
36.16,523908
37.157,521051
38.154,518292
39.15,515625
40.146,513045
41.142,510546
42.137,508124
43.131,505775
44.125,503496
45.119,501283
46.113,499131
47.106,497039
48.098,495003
49.091,493020
50.082,491088
51.074,489205
52.065,487368
53.055,485576
54.046,483826
55.036,482118
56.025,480448
57.014,478817
58.003,477221
58.991,475661
59.979,474133
60.966,472638
61.953,471173
62.94,469738
63.926,468332
64.912,466954
65.898,465604
66.883,464279
67.867,462980
68.852,461705
69.836,460453
70.819,459223
71.802,458015
72.785,456828
73.767,455661
74.749,454514
75.731,453387
76.712,452279
77.693,451189
78.673,450117
79.653,449062
80.633,448024
81.612,447002
82.59,445995
83.569,445004
84.547,444027
85.524,443064
86.502,442116
87.478,441182
88.455,440263
89.431,439356
90.407,438463
91.382,437582
92.357,436712
93.331,435854
94.305,435008
95.279,434173
96.252,433349
97.225,432536
98.198,431734
99.17,430941
100.142,430158
101.113,429386
102.084,428623
103.054,427869
104.025,427125
104.994,426391
105.964,425665
106.933,424948
107.901,424239
108.87,423538
109.837,422844
110.805,422158
111.772,421480
112.739,420809
113.705,420145
114.671,419490
115.636,418843
116.602,418203
117.566,417570
118.531,416944
119.495,416324
120.458,415711
121.421,415103
122.384,414502
123.347,413907
124.309,413318
125.27,412735
126.232,412157
127.192,411585
128.153,411019
129.113,410458
130.073,409902
131.032,409352
131.991,408807
132.95,408266
133.908,407732
134.866,407202
135.823,406677
136.78,406158
137.737,405643
138.693,405133
139.649,404628
140.604,404127
141.559,403631
142.514,403139
143.469,402651
144.422,402167
145.376,401687
146.329,401210
147.282,400737
148.235,400268
149.187,399804
150.138,399344
151.09,398888
152.04,398436
152.991,397989
153.941,397545
154.891,397105
155.84,396667
156.789,396233
157.738,395803
158.686,395375
159.634,394951
160.581,394531
161.529,394114
162.475,393700
163.422,393290
164.368,392882
165.313,392478
166.258,392076
167.203,391678
168.148,391282
169.092,390890
170.035,390500
170.979,390114
171.922,389730
172.864,389349
173.806,388970
174.748,388594
175.689,388221
176.63,387851
177.571,387483
178.511,387118
179.451,386755
180.391,386395
181.33,386038
182.269,385683
183.207,385330
184.145,384980
185.083,384632
186.02,384286
186.957,383942
187.893,383601
188.83,383262
189.765,382925
190.701,382591
191.636,382259
192.57,381929
193.505,381601
194.439,381275
195.372,380952
196.305,380630
197.238,380311
198.17,379993
199.102,379677
200.034,379363
200.965,379051
201.896,378741
202.827,378433
203.757,378127
204.687,377823
205.616,377521
206.545,377221
207.474,376922
208.402,376625
209.33,376330
210.257,376036
211.185,375744
212.111,375454
213.038,375166
213.964,374879
214.89,374595
215.815,374312
216.74,374031
217.664,373751
218.589,373473
219.512,373196
220.436,372920
221.359,372646
222.282,372373
223.204,372101
224.126,371831
225.048,371563
225.969,371296
226.89,371031
227.81,370768
228.73,370506
229.65,370246
230.569,369987
231.488,369730
232.407,369474
233.325,369219
234.243,368965
235.161,368713
236.078,368462
236.995,368212
237.911,367964
238.827,367717
239.743,367471
240.658,367226
241.573,366983
242.488,366741
243.402,366501
244.316,366262
245.229,366024
246.143,365787
247.055,365551
247.968,365316
248.88,365083
249.791,364850
250.703,364618
251.614,364388
252.524,364158
253.434,363929
254.344,363701
255.254,363475
256.163,363250
257.072,363026
257.98,362803
258.888,362582
259.796,362362
260.703,362144
261.61,361926
262.516,361709
263.423,361493
264.329,361278
265.234,361064
266.139,360850
267.044,360637
267.948,360425
268.852,360214
269.756,360005
270.659,359796
271.562,359589
272.465,359383
273.367,359177
274.269,358973
275.17,358770
276.071,358567
276.972,358365
277.872,358164
278.773,357964
279.672,357764
280.572,357566
281.47,357368
282.369,357171
283.267,356975
284.165,356780
285.063,356586
285.96,356392
286.857,356200
287.753,356008
288.649,355817
289.545,355627
290.44,355438
291.335,355249
292.23,355062
293.124,354875
294.018,354689
294.912,354503
295.805,354319
296.698,354135
297.59,353952
298.482,353770
299.374,353589
300.265,353408
301.156,353228
302.047,353049
302.937,352870
303.827,352693
304.717,352515
305.606,352339
306.495,352163
307.384,351988
308.272,351813
309.16,351639
310.047,351466
310.934,351293
311.821,351121
312.708,350950
313.594,350780
314.479,350611
315.365,350442
316.25,350274
317.134,350107
318.019,349940
318.903,349774
319.786,349609
320.669,349444
321.552,349280
322.435,349116
323.317,348953
324.199,348790
325.08,348628
325.961,348467
326.842,348306
327.722,348145
328.602,347986
329.482,347827
330.361,347668
331.24,347510
332.119,347353
332.997,347196
333.875,347040
334.753,346884
335.63,346729
336.507,346575
337.383,346421
338.26,346268
339.135,346115
340.011,345964
340.886,345812
341.761,345662
342.635,345512
343.509,345362
344.383,345213
345.256,345065
346.129,344916
347.002,344769
347.874,344621
348.746,344474
349.618,344328
350.489,344181
351.36,344035
352.23,343890
353.101,343745
353.97,343601
354.84,343458
355.709,343315
356.578,343172
357.446,343031
358.314,342890
359.182,342749
360.05,342609
360.917,342469
361.783,342330
362.65,342192
363.516,342053
364.381,341915
365.247,341777
366.112,341640
366.976,341503
367.841,341367
368.705,341231
369.568,341096
370.431,340961
371.294,340826
372.157,340692
373.019,340559
373.881,340426
374.742,340293
375.604,340161
376.464,340029
377.325,339898
378.185,339767
379.045,339636
379.904,339506
380.763,339376
381.622,339247
382.481,339118
383.339,338990
384.196,338861
385.054,338734
385.911,338606
386.767,338479
387.624,338353
388.48,338227
389.335,338101
390.191,337976
391.046,337851
391.9,337727
392.755,337603
393.609,337479
394.462,337356
395.315,337233
396.168,337111
397.021,336988
397.873,336867
398.725,336745
399.577,336624
400.428,336503
401.279,336383
402.129,336262
402.979,336143
403.829,336023
404.679,335904
405.528,335785
406.377,335667
407.225,335549
408.073,335432
408.921,335315
409.769,335198
410.616,335081
411.462,334965
412.309,334849
413.155,334734
414.001,334619
414.846,334504
415.691,334389
416.536,334275
417.38,334161
418.224,334048
419.068,333935
419.911,333822
420.755,333709
421.597,333597
422.44,333485
423.282,333374
424.123,333263
424.965,333152
425.806,333041
426.646,332931
427.487,332821
428.327,332711
429.166,332602
430.006,332493
430.845,332385
431.683,332276
432.522,332168
433.36,332060
434.197,331953
435.035,331846
435.872,331739
436.708,331632
437.545,331526
438.381,331420
439.216,331314
440.052,331208
440.886,331103
441.721,330998
442.555,330894
443.389,330789
444.223,330685
445.056,330582
445.889,330478
446.722,330375
447.554,330272
448.386,330170
449.218,330068
450.049,329966
450.88,329864
451.711,329763
452.541,329661
453.371,329561
454.2,329460
455.03,329359
455.859,329259
456.687,329159
457.516,329059
458.344,328960
459.171,328860
459.998,328761
460.825,328662
461.652,328564
462.478,328466
463.304,328368
464.13,328270
464.955,328173
465.78,328076
466.605,327979
467.429,327883
468.253,327787
469.077,327691
469.9,327595
470.723,327500
471.546,327405
472.368,327310
473.19,327215
474.012,327120
474.833,327026
475.654,326932
476.475,326838
477.295,326744
478.115,326651
478.935,326557
479.754,326464
480.573,326372
481.392,326279
482.21,326186
483.028,326094
483.846,326002
484.664,325911
485.481,325820
486.297,325728
487.114,325637
487.93,325547
488.746,325456
489.561,325366
490.376,325276
491.191,325187
492.005,325097
492.819,325008
493.633,324919
494.447,324830
495.26,324742
496.073,324653
496.885,324565
497.697,324477
498.509,324389
499.321,324302
500.132,324214
500.943,324127
501.753,324040
502.563,323953
503.373,323866
504.183,323780
504.992,323694
505.801,323608
506.61,323522
507.418,323436
508.226,323350
509.033,323265
509.841,323180
510.648,323096
511.454,323011
512.261,322927
513.067,322843
513.872,322759
514.678,322675
515.483,322591
516.287,322508
517.092,322425
517.896,322342
518.7,322259
519.503,322176
520.306,322094
521.109,322012
521.911,321930
522.713,321848
523.515,321766
524.317,321685
525.118,321604
525.919,321523
526.719,321442
527.519,321361
528.319,321280
529.119,321200
529.918,321120
530.717,321040
531.515,320960
532.314,320880
533.112,320801
533.909,320721
534.707,320642
535.504,320563
536.3,320484
537.097,320406
537.893,320327
538.688,320249
539.484,320171
540.279,320093
541.073,320016
541.868,319938
542.662,319861
543.456,319783
544.249,319706
545.043,319629
545.835,319553
546.628,319476
547.42,319400
548.212,319324
549.004,319248
549.795,319172
550.586,319096
550.586,319096
551.376,319020
552.167,318945
552.957,318870
553.746,318795
554.536,318720
555.325,318645
556.113,318571
556.902,318496
557.69,318422
558.478,318348
559.265,318274
560.052,318200
560.839,318126
561.625,318053
562.412,317980
563.198,317907
563.983,317834
564.768,317761
565.553,317688
566.338,317615
567.122,317543
567.906,317471
568.69,317399
569.473,317327
570.256,317255
571.039,317184
571.821,317112
572.603,317041
573.385,316970
574.167,316898
574.948,316827
575.729,316757
576.509,316686
577.289,316616
578.069,316546
578.849,316475
579.628,316405
580.407,316335
581.186,316266
581.964,316196
582.742,316126
583.52,316057
584.297,315988
585.074,315919
585.851,315850
586.628,315781
587.404,315713
588.18,315644
588.955,315576
589.73,315508
590.505,315440
591.28,315372
592.054,315304
592.828,315237
593.602,315169
594.375,315102
595.148,315035
595.921,314968
596.693,314900
597.465,314834
598.237,314767
599.009,314700
599.78,314634
600.551,314567
601.321,314501
602.092,314435
602.862,314370
603.631,314304
604.401,314238
605.17,314172
605.938,314107
606.707,314042
607.475,313976
608.243,313912
609.01,313847
609.777,313782
610.544,313718
611.311,313653
612.077,313589
612.843,313524
613.608,313460
614.374,313396
615.139,313332
615.904,313269
616.668,313205
617.432,313142
618.196,313078
618.959,313015
619.723,312952
620.485,312889
621.248,312826
622.01,312763
622.772,312700
623.534,312638
624.295,312575
625.056,312513
625.817,312451
626.577,312389
627.338,312327
628.097,312265
628.857,312203
629.616,312142
630.375,312080
631.134,312019
631.892,311957
632.65,311896
633.408,311835
634.165,311774
634.922,311713
635.679,311653
636.435,311592
637.191,311532
637.947,311471
638.703,311411
639.458,311351
640.213,311291
640.968,311231
641.722,311171
642.476,311111
643.23,311052
643.983,310992
644.736,310933
645.489,310874
646.242,310815
646.994,310756
647.746,310697
648.498,310638
649.249,310579
650,310521
650.751,310462
651.501,310404
652.251,310345
653.001,310287
653.751,310229
654.5,310172
655.249,310114
655.997,310056
656.746,309998
657.494,309941
658.241,309883
658.989,309826
659.736,309768
660.483,309711
661.229,309654
661.976,309597
662.721,309541
663.467,309484
664.212,309427
664.957,309371
665.702,309314
666.447,309258
667.191,309202
667.935,309145
668.678,309089
669.421,309033
670.164,308978
670.907,308922
671.649,308866
672.391,308811
673.133,308756
673.874,308701
674.616,308645
675.356,308590
676.097,308535
676.837,308480
677.577,308425
678.317,308370
679.056,308315
679.795,308261
680.534,308206
681.273,308152
682.011,308098
682.749,308044
683.486,307990
684.223,307936
684.96,307882
685.697,307828
686.434,307774
687.17,307720
687.906,307666
688.641,307613
689.376,307560
690.111,307506
690.846,307453
691.58,307400
692.314,307347
693.048,307294
693.781,307242
694.515,307189
695.247,307136
695.98,307083
696.712,307031
697.444,306978
698.176,306926
698.907,306874
699.638,306822
700.369,306770
701.1,306718
701.83,306667
702.56,306615
703.29,306563
704.019,306512
704.748,306460
705.477,306409
706.205,306357
706.933,306306
707.661,306255
708.389,306204
709.116,306153
709.843,306102
710.57,306051
711.296,306001
712.022,305950
712.748,305900
713.474,305849
714.199,305799
714.924,305748
715.649,305698
716.373,305648
717.097,305598
717.821,305547
718.545,305498
719.268,305448
719.991,305398
720.713,305349
721.436,305299
722.158,305250
722.88,305200
723.601,305151
724.322,305102
725.043,305052
725.764,305003
726.484,304954
727.204,304905
727.924,304856
728.643,304807
729.362,304758
730.081,304710
730.8,304661
731.518,304613
732.236,304565
732.954,304517
733.671,304468
734.389,304420
735.106,304372
735.822,304324
736.538,304276
737.254,304228
737.97,304180
738.686,304132
739.401,304085
740.116,304037
740.83,303990
741.544,303943
742.258,303896
742.972,303848
743.685,303801
744.399,303754
745.112,303707
745.824,303660
746.536,303613
747.248,303566
747.96,303519
748.671,303473
749.383,303426
750.093,303380
750.804,303333
751.514,303287
752.224,303241
752.934,303195
753.643,303149
754.353,303103
755.061,303057
755.77,303011
756.478,302965
757.186,302919
757.894,302873
758.601,302827
759.309,302782
760.015,302736
760.722,302691
761.428,302645
762.134,302600
762.84,302555
763.546,302510
764.251,302465
764.956,302420
765.66,302375
766.365,302330
767.069,302286
767.772,302241
768.476,302196
769.179,302151
769.882,302107
770.585,302062
771.287,302018
771.989,301973
772.691,301929
773.392,301885
774.093,301841
774.794,301797
775.495,301753
776.195,301709
776.896,301665
777.595,301622
778.295,301578
778.994,301534
779.693,301490
780.392,301447
781.09,301403
781.788,301360
782.486,301316
783.184,301273
783.881,301230
784.578,301187
785.275,301144
785.971,301101
786.667,301058
787.363,301015
788.059,300972
788.754,300930
789.449,300887
790.144,300844
790.839,300802
791.533,300759
792.227,300716
792.92,300674
793.614,300632
794.307,300589
795,300547
795.692,300505
796.384,300463
797.076,300421
797.768,300379
798.46,300337
799.151,300296
799.842,300254
800.532,300212
801.223,300171
801.913,300129
802.602,300087
803.292,300046
803.981,300004
804.67,299963
805.359,299921
806.047,299880
806.735,299839
807.423,299798
808.111,299757
808.798,299716
809.485,299675
810.172,299635
810.858,299594
811.544,299553
812.23,299513
812.916,299472
813.601,299431
814.286,299391
814.971,299350
815.656,299310
816.34,299269
817.024,299229
817.708,299189
818.391,299148
819.074,299108
819.757,299068
820.44,299029
821.122,298989
821.804,298949
822.486,298909
823.167,298870
823.849,298830
824.53,298790
825.21,298751
825.891,298711
826.571,298671
827.251,298632
827.93,298592
828.61,298553
829.289,298513
829.968,298474
830.646,298435
831.324,298396
832.002,298357
832.68,298318
833.357,298279
834.035,298241
834.712,298202
835.388,298163
836.065,298125
836.741,298086
837.416,298047
838.092,298009
838.767,297970
839.442,297931
840.117,297893
840.791,297854
841.466,297816
842.139,297778
842.813,297740
843.486,297702
844.16,297664
844.832,297626
845.505,297588
846.177,297550
846.849,297512
847.521,297474
848.192,297437
848.864,297399
849.535,297361
850.205,297324
850.876,297286
851.546,297248
852.216,297211
852.885,297173
853.555,297136
854.224,297098
854.892,297061
855.561,297024
856.229,296987
856.897,296950
857.565,296913
858.232,296876
858.899,296839
859.566,296802
860.23,296766
860.9,296729
861.57,296692
862.23,296655
862.9,296619
863.56,296582
864.23,296545
864.89,296509
865.56,296472
866.22,296436
866.88,296399
867.55,296363
868.21,296326
868.88,296290
869.54,296254
870.2,296218
870.86,296182
871.53,296146
872.19,296111
872.85,296075
873.51,296039
874.17,296003
874.83,295967
875.49,295932
876.15,295896
876.81,295860
877.47,295824
878.13,295789
878.79,295753
879.45,295718
880.11,295682
880.77,295647
881.42,295611
882.08,295576
882.74,295541
883.4,295506
884.05,295471
884.71,295436
885.37,295401
886.02,295366
886.68,295331
887.34,295297
887.99,295262
888.65,295227
889.3,295192
889.96,295157
890.61,295122
891.27,295088
891.92,295053
892.57,295018
893.23,294984
893.88,294949
894.53,294915
895.18,294880
895.84,294846
896.49,294812
897.14,294778
897.79,294744
898.44,294710
899.1,294676
899.75,294642
900.4,294608
901.05,294574
901.7,294540
902.35,294506
903,294472
903.65,294438
904.29,294405
904.94,294371
905.59,294337
906.24,294303
906.89,294270
907.53,294236
908.18,294203
908.83,294169
909.48,294136
910.12,294103
910.77,294069
911.42,294036
912.06,294003
912.71,293970
913.35,293937
914,293904
914.64,293871
915.29,293838
915.93,293805
916.57,293772
917.22,293739
917.86,293706
918.51,293673
919.15,293640
919.79,293607
920.43,293575
921.08,293542
921.72,293509
922.36,293477
923,293444
923.64,293412
924.28,293379
924.92,293347
925.56,293315
926.2,293283
926.84,293251
927.48,293219
928.12,293186
928.76,293154
929.4,293122
930.04,293090
930.68,293058
931.32,293026
931.95,292994
932.59,292962
933.23,292930
933.87,292898
934.5,292866
935.14,292834
935.78,292802
936.41,292771
937.05,292739
937.68,292707
938.32,292676
938.95,292645
939.59,292613
940.22,292582
940.86,292551
941.49,292519
942.13,292488
942.76,292457
943.39,292426
944.03,292394
944.66,292363
945.29,292332
945.92,292301
946.55,292269
947.19,292238
947.82,292207
948.45,292176
949.08,292145
949.71,292114
950.34,292083
950.97,292052
951.6,292022
952.23,291991
952.86,291960
953.49,291930
954.12,291899
954.75,291869
955.38,291838
956,291808
956.63,291778
957.26,291747
957.89,291717
958.51,291686
959.14,291656
959.77,291626
960.39,291595
961.02,291565
961.65,291535
962.27,291504
962.9,291474
963.52,291444
964.15,291414
964.77,291384
965.4,291354
966.02,291324
966.64,291294
967.27,291265
967.89,291235
968.52,291205
969.14,291176
969.76,291146
970.38,291117
971.01,291087
971.63,291057
972.25,291028
972.87,290998
973.49,290969
974.11,290939
974.73,290910
975.35,290880
975.97,290851
976.59,290821
977.21,290792
977.83,290763
978.45,290733
979.07,290704
979.69,290675
980.31,290646
980.93,290617
981.54,290588
982.16,290559
982.78,290530
983.4,290501
984.01,290472
984.63,290443
985.25,290415
985.86,290386
986.48,290357
987.09,290328
987.71,290300
988.33,290271
988.94,290242
989.56,290214
990.17,290185
990.78,290156
991.4,290128
992.01,290099
992.63,290070
993.24,290042
993.85,290013
994.46,289985
995.08,289957
995.69,289929
996.3,289900
996.91,289872
997.52,289844
998.14,289816
998.75,289788
999.36,289760
999.97,289732
1000.58,289704
1001.19,289676
1001.8,289648
1002.41,289621
1003.02,289593
1003.63,289565
1004.24,289537
1004.84,289509
1005.45,289481
1006.06,289453
1006.67,289425
1007.28,289398
1007.88,289370
1008.49,289342
1009.1,289314
1009.7,289287
1010.31,289259
1010.92,289232
1011.52,289204
1012.13,289177
1012.73,289150
1013.34,289123
1013.94,289095
1014.55,289068
1015.15,289041
1015.76,289014
1016.36,288987
1016.96,288960
1017.57,288933
1018.17,288906
1018.77,288879
1019.38,288851
1019.98,288824
1020.58,288797
1021.18,288770
1021.79,288743
1022.39,288716
1022.99,288689
1023.59,288662
1024.19,288635
1024.79,288608
1025.39,288581
1025.99,288555
1026.59,288528
1027.19,288501
1027.79,288475
1028.39,288448
1028.99,288422
1029.59,288395
1030.19,288369
1030.78,288343
1031.38,288316
1031.98,288290
1032.58,288264
1033.17,288238
1033.77,288211
1034.37,288185
1034.96,288159
1035.56,288132
1036.16,288106
1036.75,288080
1037.35,288054
1037.94,288027
1038.54,288001
1039.13,287975
1039.73,287949
1040.32,287922
1040.92,287896
1041.51,287870
1042.1,287844
1042.7,287818
1043.29,287793
1043.88,287767
1044.48,287741
1045.07,287715
1045.66,287690
1046.25,287664
1046.84,287639
1047.44,287613
1048.03,287587
1048.62,287562
1049.21,287536
1049.8,287511
1050.39,287486
1050.98,287460
1051.57,287435
1052.16,287409
1052.75,287384
1053.34,287358
1053.93,287333
1054.52,287307
1055.1,287282
1055.69,287256
1056.28,287231
1056.87,287205
1057.45,287180
1058.04,287155
1058.63,287130
1059.22,287104
1059.8,287079
