x, pressure
0.000000000000000000e+00,0.000000000000000000e+00
2.430000002107135578e-09,7.577935505999999766e-01
6.720000001791959367e-09,1.915325685000000000e+00
1.353000000392512526e-08,4.201960642999999607e+00
2.352000000627185696e-08,8.267223300999999580e+00
3.633000000036190317e-08,1.522519053000000078e+01
5.211999999943373152e-08,2.694291997999999921e+01
7.175000000358976924e-08,4.624015005999999772e+01
9.481000000022276962e-08,7.670646166000000221e+01
1.215200000004301792e-07,1.213076956999999965e+02
1.529300000058242319e-07,1.896870008999999868e+02
1.885500000042838998e-07,2.825463490000000206e+02
2.286300000022833922e-07,4.031911198999999897e+02
2.744800000016311804e-07,5.301388927000000422e+02
3.254900000015936775e-07,6.482413706999999476e+02
3.819699999993986315e-07,7.382459540999999490e+02
4.454900000041561797e-07,8.430392617999999629e+02
5.153200000052038376e-07,9.718601308999999446e+02
5.918400000055612322e-07,1.102701264999999921e+03
6.769500000061157203e-07,1.262971039999999903e+03
7.697500000034551738e-07,1.545994347000000062e+03
8.707000000001130604e-07,1.957104747999999972e+03
9.821100000024785749e-07,2.538047545999999784e+03
1.102870000003974783e-06,3.223205347999999958e+03
1.233530000000371326e-06,4.157004254999999830e+03
1.376900000003900058e-06,5.380363645000000361e+03
1.531599999999855240e-06,6.926382915999999568e+03
1.698300000001040693e-06,8.763514451999999437e+03
1.880400000004556220e-06,1.071781585000000086e+04
2.076219999999295949e-06,1.257240163000000030e+04
2.286570000002541383e-06,1.419199637000000075e+04
2.515520000002879927e-06,1.552201938999999948e+04
2.761060000004533614e-06,1.654796557000000030e+04
3.024120000006291870e-06,1.731482084000000032e+04
3.309659999999325766e-06,1.789316436999999860e+04
3.615190000004986339e-06,1.833931669999999940e+04
3.941860000004737523e-06,1.869342170999999871e+04
4.295590000005233968e-06,1.897528987000000052e+04
4.673400000001493331e-06,1.919152548999999999e+04
5.076680000001942572e-06,1.935117476000000170e+04
5.512540000005117344e-06,1.948738491000000067e+04
5.977390000005300604e-06,1.961285076000000117e+04
6.472870000003183909e-06,1.971504540999999881e+04
7.007510000001104630e-06,1.978567181999999957e+04
7.576990000004002847e-06,1.981239834999999948e+04
8.183290000005173046e-06,1.977628945999999996e+04
8.836660000000051018e-06,1.970269461999999839e+04
9.531880000004378775e-06,1.962378701999999976e+04
1.027128000000487859e-05,1.954665064999999959e+04
1.106713000000070290e-05,1.948969038000000000e+04
1.191319000000135088e-05,1.946516591999999946e+04
1.281233000000270342e-05,1.946026668000000063e+04
1.377931000000387539e-05,1.946935536000000138e+04
1.480662000000165802e-05,1.947520377999999982e+04
1.589764000000570677e-05,1.945721201999999903e+04
1.706999000000308678e-05,1.940260973999999987e+04
1.831471999999934004e-05,1.931830081000000064e+04
1.963594000000057487e-05,1.922150385000000097e+04
2.105484000000501426e-05,1.912601327999999921e+04
2.256060999999931507e-05,1.903067552000000069e+04
2.415805000000404023e-05,1.893005193000000145e+04
2.587233000000565988e-05,1.883901433000000179e+04
2.769078000000036035e-05,1.877562215999999898e+04
2.961943000000388798e-05,1.873443980999999985e+04
3.168880000000484561e-05,1.870137397000000055e+04
3.388353000000421194e-05,1.865676398999999947e+04
3.621065000000100830e-05,1.858385346999999820e+04
3.870642000000401898e-05,1.850302056000000084e+04
4.135272999999984082e-05,1.843606509999999980e+04
4.415833000000191338e-05,1.838297164999999950e+04
4.716698000000007742e-05,1.833556165999999939e+04
5.035665000000477903e-05,1.826984132999999929e+04
5.373729000000082394e-05,1.818053252000000066e+04
5.736032000000079457e-05,1.809074087000000145e+04
6.120053000000069796e-05,1.801616509999999835e+04
6.527095000000570789e-05,1.795359930000000168e+04
6.963475999999956976e-05,1.790497498999999880e+04
7.426098000000536472e-05,1.784098715000000084e+04
7.916439000000252398e-05,1.775782321999999840e+04
8.441893000000532732e-05,1.766918815000000177e+04
8.998872000000091064e-05,1.759521814000000086e+04
9.589263000000158507e-05,1.754201443999999901e+04
1.022205200000030387e-04,1.749813306000000011e+04
1.089277900000027479e-04,1.745161742999999842e+04
1.160345900000052665e-04,1.740390197999999873e+04
1.236430400000045786e-04,1.735367910000000120e+04
1.317036200000032376e-04,1.730621185999999943e+04
1.402440600000005541e-04,1.725913768999999957e+04
1.493915799999996272e-04,1.720432502999999997e+04
1.590836000000024218e-04,1.714943988000000172e+04
1.693490900000043102e-04,1.709507237000000168e+04
1.803311800000031485e-04,1.704049423999999999e+04
1.919575300000033629e-04,1.699673469000000114e+04
2.042644800000061945e-04,1.695591231999999945e+04
2.174250999999998032e-04,1.690810608000000138e+04
2.313465699999994610e-04,1.685859738999999900e+04
2.460633400000063176e-04,1.680527288000000044e+04
2.617620400000006723e-04,1.674296707999999853e+04
2.783372100000036892e-04,1.667330971000000136e+04
2.958315300000009525e-04,1.661108484999999928e+04
3.144719500000050724e-04,1.659180769000000146e+04
3.341222700000016964e-04,1.658753649999999834e+04
3.548205900000027868e-04,1.657017083999999886e+04
3.768144200000023343e-04,1.653969111999999950e+04
3.999417899999997282e-04,1.648561941999999908e+04
4.242405300000058415e-04,1.640718391999999949e+04
4.499923800000047401e-04,1.632164276000000064e+04
4.769993499999998260e-04,1.625001310999999987e+04
5.052953900000006163e-04,1.622123198000000048e+04
5.351910000000046274e-04,1.624537161999999989e+04
5.664581800000050710e-04,1.628032027000000016e+04
5.991250699999994432e-04,1.628304268000000047e+04
6.335259500000063040e-04,1.625340763999999945e+04
6.693989600000023205e-04,1.618765906999999970e+04
7.067722900000035459e-04,1.611833146999999917e+04
7.460183400000062158e-04,1.607363703999999962e+04
7.868440100000029724e-04,1.605757903000000078e+04
8.292706600000059351e-04,1.605996175000000039e+04
8.736842500000036689e-04,1.605533209999999963e+04
9.197717100000062703e-04,1.603141516000000047e+04
9.675646700000015187e-04,1.599666497999999956e+04
1.017506580000002723e-03,1.596427758999999969e+04
1.069249500000005139e-03,1.594735332000000017e+04
1.122813810000003769e-03,1.594293528999999944e+04
1.178639080000003572e-03,1.594531850999999915e+04
1.236364940000001444e-03,1.594458148000000074e+04
1.296025230000005064e-03,1.592471523999999954e+04
1.358114930000006368e-03,1.588321891999999934e+04
1.422244650000003283e-03,1.583561737999999968e+04
1.488444850000000515e-03,1.580247459999999955e+04
1.557220510000000566e-03,1.579159000999999989e+04
1.628171810000004875e-03,1.579622119000000021e+04
1.701346320000006159e-03,1.580799536000000080e+04
1.777323960000003894e-03,1.581765384000000086e+04
1.855661590000003917e-03,1.581197608000000037e+04
1.936398590000003046e-03,1.578427537999999913e+04
2.020117740000003641e-03,1.574185476999999992e+04
2.106363080000001400e-03,1.570337700000000041e+04
2.195190570000001267e-03,1.568376569000000018e+04
2.287252800000004645e-03,1.568442524000000049e+04
2.382054530000005024e-03,1.569856380999999965e+04
2.479651970000006349e-03,1.571579197999999997e+04
2.580726230000003184e-03,1.572176993000000039e+04
2.684759320000004897e-03,1.570600353999999970e+04
2.791824250000004681e-03,1.566990350000000035e+04
2.902692530000003206e-03,1.562733499999999913e+04
3.016788240000004093e-03,1.559719966000000022e+04
3.134180540000002478e-03,1.558791351000000031e+04
3.255668460000002689e-03,1.559832193000000007e+04
3.380647350000003885e-03,1.561978792000000067e+04
3.509203130000003185e-03,1.563896327000000019e+04
3.642224670000004591e-03,1.564086922000000050e+04
3.779050070000004001e-03,1.561855037000000084e+04
3.919768590000004271e-03,1.557805001000000084e+04
4.065324420000003026e-03,1.553594167000000016e+04
4.215013310000003191e-03,1.550948892999999953e+04
4.368942110000006290e-03,1.550678911999999946e+04
4.528170260000003063e-03,1.552502534000000014e+04
4.691914900000000027e-03,1.555290323999999964e+04
4.860282660000003058e-03,1.557422108999999909e+04
5.034391010000000000e-03,1.557378554000000076e+04
5.213406730000002577e-03,1.554661331000000064e+04
5.397455680000000540e-03,1.550073046000000068e+04
5.587777750000000841e-03,1.545368935000000056e+04
5.783456910000005224e-03,1.542406338999999934e+04
5.984624750000002227e-03,1.542246231000000080e+04
6.192608210000003117e-03,1.544627771000000030e+04
6.406423830000001519e-03,1.547962349999999969e+04
6.626224159999999364e-03,1.550144383999999991e+04
6.853491030000000497e-03,1.549690047000000050e+04
7.087131420000006114e-03,1.546692472000000089e+04
7.327300560000004834e-03,1.542659549999999945e+04
7.575573150000004113e-03,1.539641157000000021e+04
7.830780040000000566e-03,1.539101095999999961e+04
8.093101100000004919e-03,1.541199508000000060e+04
8.364279930000002861e-03,1.544639407000000028e+04
8.643030819999999656e-03,1.547326669000000038e+04
8.929543730000006480e-03,1.547512152000000060e+04
9.225691390000002184e-03,1.544738775999999962e+04
9.530086940000003295e-03,1.540281247000000076e+04
9.842946230000003405e-03,1.536329929000000084e+04
1.016635494000000563e-02,1.534890157999999974e+04
1.049877149000000287e-02,1.536793160999999964e+04
1.084041848000000426e-02,1.541177404000000024e+04
1.119351937000000359e-02,1.545970418000000063e+04
1.155642641000000082e-02,1.549166421000000082e+04
1.192939603999999994e-02,1.550080797999999959e+04
1.231488514000000055e-02,1.549366388999999981e+04
1.271107315000000355e-02,1.548744799000000057e+04
1.311822874000000659e-02,1.550262829000000056e+04
1.353899080000000796e-02,1.554415568999999959e+04
1.397140418000000772e-02,1.559886497000000054e+04
1.441577446000000783e-02,1.564189017000000058e+04
1.487504012000000903e-02,1.565200942000000032e+04
1.534702578000000928e-02,1.562634058999999979e+04
1.583204673000000035e-02,1.558226125999999931e+04
1.633322977000000245e-02,1.554715769000000000e+04
1.684824915000000117e-02,1.554260459000000083e+04
1.737746373000000066e-02,1.556959389000000010e+04
1.792432523000000652e-02,1.560519074999999975e+04
1.848627657000000146e-02,1.562220191999999952e+04
1.906369663000000853e-02,1.560577562000000034e+04
1.966028791000000789e-02,1.556349383999999918e+04
2.027329912000000456e-02,1.552077459000000090e+04
2.090315922999999923e-02,1.550368410000000040e+04
2.155397401999999824e-02,1.552011808000000019e+04
2.222268558000000532e-02,1.555398220000000038e+04
2.290974147000000155e-02,1.557719585999999981e+04
2.361952164999999576e-02,1.556955681999999979e+04
2.434877570999999935e-02,1.553399923999999919e+04
2.509800325999999790e-02,1.549288745000000017e+04
2.587199374000000857e-02,1.547470984999999928e+04
2.666717488000000524e-02,1.549075885000000017e+04
2.748409254999999857e-02,1.552568333999999959e+04
2.832791819999999974e-02,1.554957077000000027e+04
2.919479146000000455e-02,1.554106083000000035e+04
3.008530451000000078e-02,1.550471011999999973e+04
3.100513903000001042e-02,1.546777907000000050e+04
3.195004878999999770e-02,1.545829380999999921e+04
3.292066356000000749e-02,1.548164968000000044e+04
3.392309678000000883e-02,1.551562435000000005e+04
3.495278376000000159e-02,1.552877203999999983e+04
3.601041172000001012e-02,1.550797335999999996e+04
3.710263460000000346e-02,1.547053023000000030e+04
3.822447705999999779e-02,1.544910339999999997e+04
3.937668598000000630e-02,1.546187607000000025e+04
4.056643644000000604e-02,1.549511297000000013e+04
4.178835739000000271e-02,1.551673754999999983e+04
4.304326715000000858e-02,1.550524351999999999e+04
4.433893453000000567e-02,1.547002681999999913e+04
4.566954320000000955e-02,1.544329384000000027e+04
4.703596377000000828e-02,1.545000326999999925e+04
4.844659183000000341e-02,1.548096982000000025e+04
4.989513489999999885e-02,1.550485628999999972e+04
5.138251660000000415e-02,1.549760586999999941e+04
5.291785599999999923e-02,1.546585901000000013e+04
5.449430490000000543e-02,1.544042811000000074e+04
5.611287720000000118e-02,1.544568774999999914e+04
5.778341359999999982e-02,1.547503170999999929e+04
5.949850710000000042e-02,1.549695166000000063e+04
6.125923439999999415e-02,1.548716986999999972e+04
6.307623270000001225e-02,1.545335447999999997e+04
6.494147630000000893e-02,1.542811865000000034e+04
6.685612760000000931e-02,1.543473107999999957e+04
6.883170719999999465e-02,1.546551732000000084e+04
7.085949460000000311e-02,1.548832841000000008e+04
7.294072999999999529e-02,1.547936323000000084e+04
7.508783390000001168e-02,1.544680917000000045e+04
7.729137860000001581e-02,1.542246552999999949e+04
7.955268980000000656e-02,1.542952871000000050e+04
8.188519340000000035e-02,1.545904478999999992e+04
8.427865539999999933e-02,1.547832164999999986e+04
8.673448579999999686e-02,1.546559251000000040e+04
8.926713010000002224e-02,1.543234120000000075e+04
9.186553990000000114e-02,1.541012674999999945e+04
9.453121550000001538e-02,1.542085983999999917e+04
9.727974120000000557e-02,1.545342187000000013e+04
1.000991375000000044e-01,1.547410893000000033e+04
1.029909917000000064e-01,1.546100949000000037e+04
1.059720611999999951e-01,1.542586275000000023e+04
1.090294014000000034e-01,1.540158407000000079e+04
1.121646890999999924e-01,1.541076469999999972e+04
1.153959186000000081e-01,1.544303847999999925e+04
1.187091143999999959e-01,1.546502110999999968e+04
1.221060401000000212e-01,1.545382796000000053e+04
1.256060310000000069e-01,1.541856355000000076e+04
1.291939735999999839e-01,1.539206197000000066e+04
1.328717154000000344e-01,1.539927321999999913e+04
1.366598958999999947e-01,1.543300554999999986e+04
1.405422886000000093e-01,1.546023480999999992e+04
1.445208220000000210e-01,1.545416072999999960e+04
1.486175989999999891e-01,1.541872458000000006e+04
1.528151108000000147e-01,1.538475256000000081e+04
1.571153571999999998e-01,1.538203528000000006e+04
1.615418187000000338e-01,1.541254303000000073e+04
1.660757699000000032e-01,1.544814782999999989e+04
1.707192777000000328e-01,1.545550634999999966e+04
1.754974799999999835e-01,1.542529421999999977e+04
1.803901339000000270e-01,1.538057538000000022e+04
1.853993545999999826e-01,1.535657070000000022e+04
1.905515913999999977e-01,1.537181833999999981e+04
1.958253935999999806e-01,1.541279305000000022e+04
2.012229188000000113e-01,1.544490675000000010e+04
2.067722772999999736e-01,1.544179488999999921e+04
2.124504299999999957e-01,1.540583541999999943e+04
2.182595518000000068e-01,1.536507725000000028e+04
2.242290909999999915e-01,1.535098974000000089e+04
2.303346937999999622e-01,1.537455671000000075e+04
2.365785391999999654e-01,1.541842152999999962e+04
2.429918918999999788e-01,1.544923660999999993e+04
2.495485547999999887e-01,1.544383935999999994e+04
2.562506740000000116e-01,1.540539676999999938e+04
2.631305855000000138e-01,1.535978964000000087e+04
2.701609231000000055e-01,1.533726711000000068e+04
2.773437847999999928e-01,1.535288155999999981e+04
2.847131102000000080e-01,1.539648515000000043e+04
2.922397688999999743e-01,1.543867211999999927e+04
2.999257665000000239e-01,1.545201612999999998e+04
3.078060369999999768e-01,1.542784339000000000e+04
3.158502085000000070e-01,1.538044699000000037e+04
3.240601689999999535e-01,1.533684280000000035e+04
3.324724802999999840e-01,1.532104245000000083e+04
3.410548087999999978e-01,1.534133064999999988e+04
3.498088687999999502e-01,1.538656531999999970e+04
3.587716742999999542e-01,1.543094555000000037e+04
3.679099980999999686e-01,1.544996962999999960e+04
3.772253534999999713e-01,1.543381327000000056e+04
3.867558667000000061e-01,1.539107613999999921e+04
3.964666619999999697e-01,1.534296006999999918e+04
4.063589913999999803e-01,1.531173300999999992e+04
4.164711787999999526e-01,1.531067703000000074e+04
4.267674971000000039e-01,1.533931119000000035e+04
4.372489018999999866e-01,1.538507870000000003e+04
4.479546326999999661e-01,1.542759023999999954e+04
4.588472810999999485e-01,1.544832798999999977e+04
4.699274389000000496e-01,1.543843852999999945e+04
4.812336885000000342e-01,1.540216976000000068e+04
4.927283888999999806e-01,1.535456866000000082e+04
5.044117376000000208e-01,1.531378759999999966e+04
5.163223778000000097e-01,1.529370052000000032e+04
5.284216161000000467e-01,1.529898046000000068e+04
5.407091939000000513e-01,1.532618121000000065e+04
5.532226457000000153e-01,1.536607541999999921e+04
5.659232828000000382e-01,1.540617242000000078e+04
5.788103608000000344e-01,1.543450535999999920e+04
5.919210336000001460e-01,1.544217894999999953e+04
6.052157957000000588e-01,1.542628278999999930e+04
6.186933606000000196e-01,1.539133138999999937e+04
6.323886888999999956e-01,1.534792859999999928e+04
6.462631832000000909e-01,1.530906458000000021e+04
6.603150033000000363e-01,1.528497739999999976e+04
6.745776312000000274e-01,1.528013529000000017e+04
6.890126121000000881e-01,1.529284484999999950e+04
7.036175164000000315e-01,1.531770736000000034e+04
7.184230970000000660e-01,1.534850131999999940e+04
7.333922510000000505e-01,1.537968044000000009e+04
7.485219629000000596e-01,1.540691525000000001e+04
7.638409341999999880e-01,1.542617403000000013e+04
7.793127288000000208e-01,1.543362055999999939e+04
7.949337321999999650e-01,1.542661729999999989e+04
8.107288670000000197e-01,1.540509966999999961e+04
8.266641095000000217e-01,1.537273020999999972e+04
8.427352797000000617e-01,1.533603679000000011e+04
8.589641896999999915e-01,1.530268618000000060e+04
8.753186255000000582e-01,1.527908541999999943e+04
8.917938610000000210e-01,1.526854317000000083e+04
9.084075584000000925e-01,1.527092697000000044e+04
9.251304408000000645e-01,1.528341990000000078e+04
9.419572941000000643e-01,1.530178388000000086e+04
9.589022200000000273e-01,1.532204773999999998e+04
9.759384159999999753e-01,1.534172633999999925e+04
9.930602289999999055e-01,1.535983498999999938e+04
1.010276970999999913e+00,1.537624149000000034e+04
1.027565698000000083e+00,1.539097033999999985e+04
1.044920403999999969e+00,1.540353795999999966e+04
1.062346197999999964e+00,1.541274199000000044e+04
1.079823603999999992e+00,1.541688459999999941e+04
1.097346338000000143e+00,1.541432747999999992e+04
1.114914770000000166e+00,1.540415615000000071e+04
1.132513634000000158e+00,1.538664321000000018e+04
1.150136475000000047e+00,1.536344607999999971e+04
1.167779386999999947e+00,1.533730592000000070e+04
1.185431078999999999e+00,1.531147684999999910e+04
1.203085015000000091e+00,1.528903807000000052e+04
1.220732586000000008e+00,1.527231039000000055e+04
1.238367141999999976e+00,1.526252505000000019e+04
1.255982173999999896e+00,1.525974358000000029e+04
1.273564814999999850e+00,1.526305885999999919e+04
1.291112855000000170e+00,1.527089358999999968e+04
1.308619911000000080e+00,1.528149102999999923e+04
1.326068945000000054e+00,1.529317487000000074e+04
1.343462332000000092e+00,1.530465000999999938e+04
1.360793917000000075e+00,1.531508980999999949e+04
1.378042767000000168e+00,1.532414108999999917e+04
1.395215788000000012e+00,1.533182795000000078e+04
1.412307138999999934e+00,1.533840235000000030e+04
1.429292392999999883e+00,1.534422659999999996e+04
1.446182786000000053e+00,1.534965595000000030e+04
1.462972874000000090e+00,1.535497385000000031e+04
1.479634938000000233e+00,1.536045115000000078e+04
1.496184515000000159e+00,1.536611072000000058e+04
1.512616627000000102e+00,1.537178289000000041e+04
1.528900868000000024e+00,1.537728465999999935e+04
1.545056614000000161e+00,1.538242574000000059e+04
1.561079404999999865e+00,1.538693707999999970e+04
1.576936144000000040e+00,1.539051101000000017e+04
1.592650158000000093e+00,1.539285060999999951e+04
1.608217549999999996e+00,1.539367619000000013e+04
1.623603549000000257e+00,1.539278526000000056e+04
1.638834495000000002e+00,1.539004665999999997e+04
1.653907069000000174e+00,1.538541090000000077e+04
1.668784691000000153e+00,1.537894307999999910e+04
1.683496886000000137e+00,1.537078952000000027e+04
1.698040932000000058e+00,1.536122206999999980e+04
1.712379339000000167e+00,1.535057273999999961e+04
1.726543924000000008e+00,1.533918987999999990e+04
1.740532549000000095e+00,1.532746570000000065e+04
1.754306463000000038e+00,1.531579069999999956e+04
1.767900106000000138e+00,1.530451025999999911e+04
