"Region: Body 1.Ramp1: Position[X] (m)","Region: Body 1.Ramp1: Skin Friction Coefficient","Region: Body 1.Ramp2: Position[X] (m)","Region: Body 1.Ramp2: Skin Friction Coefficient"
1.2143478528438658,119.90359743770514,2.504147698764818,2094.1818414864215
1.2138515756011077,119.95096878486605,2.504065349305024,963.9883520135705
1.2133552983498792,120.00350485745413,2.50397064748197,751.3492653871904
1.2128590210986563,120.05985880469946,2.5038617404580843,700.3414405806266
1.2123627438495577,120.11937646283576,2.5037364974777425,698.4497570457298
1.2118629534018244,120.18101395000707,2.503592468177229,703.7356859639431
1.2113666751890324,120.24412029962687,2.503426834651504,707.0419522665835
1.2108739121022951,120.30460645607413,2.5032363563198046,707.1940548878451
1.210377634851103,120.3641006071301,2.5030173065380072,707.2008365267747
1.209881357599912,120.42019539373197,2.5027653996788013,707.0906451284659
1.209385080357205,120.47168614798704,2.502475707307319,706.96396358613
1.2088888031060274,120.51757457321126,2.50214256177392,706.8435419475255
1.2083925258548558,120.55766567313678,2.501759445314695,706.7284259414845
1.2078908604323653,120.58863034459722,2.5013188625977163,706.605658909109
1.207394581713309,120.6160187318222,2.500812194075689,706.556165105464
1.2069036941098517,120.63392597932894,2.5001701507654412,706.4532853085146
1.2064074168587005,120.64829706440423,2.499607440122198,706.4717871331402
1.2059111396160336,120.6580560991559,2.4992242991888554,706.496107378771
1.2054148623648964,120.66435111265457,2.498841158251144,706.5075201304445
1.2049185851137652,120.66758298221107,2.4984580173156608,706.548600876688
1.2044223078626395,120.66878037358201,2.498074876382409,706.583385786784
1.2039260306197581,120.668046411448,2.4976917354469887,706.6735937210608
1.2034297533686467,120.66650947704342,2.4973085945104994,706.7623514050599
1.2029334761177715,120.66437697267263,2.4969254535751397,706.8624292011891
1.2024371988666713,120.661425145003,2.496542312640911,707.0048367752477
1.2019409216155723,120.65863052348784,2.496159171705614,707.1404483557612
1.2014446443729576,120.6556496800841,2.495776030770348,707.3059107154221
1.2009483671218728,120.65292595866639,2.495392889835113,707.5086101495274
1.200452089871853,120.64999495809707,2.495009748899909,707.7546800575916
1.1999558126161676,120.64891236260185,2.4946296661178917,707.9814974391627
1.1994595353725128,120.64964839401505,2.4942465267914353,708.20780243354
1.1989632581260674,120.6518712609226,2.493860326094484,708.4856406598806
1.1984669808750097,120.65416574208597,2.4934771851594055,708.766864318197
1.1979707036324356,120.6554544549853,2.4930940442243585,709.0306757001948
1.197474426381392,120.65579177783842,2.492710903289343,709.3116557623014
1.196978149130354,120.65550757156211,2.4923277623543596,709.5884994922795
1.1964858107256182,120.6544361603904,2.4919446214194076,709.8423616790185
1.19598953457261,120.6532029410026,2.4915614804844872,710.0837844368674
1.195489317385751,120.6514237640685,2.4911783395495988,710.3111877279428
1.1949930401347344,120.64984815177854,2.4907973536977286,710.5473954780213
1.1944967628837284,120.64820608514933,2.490414213905564,710.7039699754883
1.1940004856327235,120.64686595026181,2.4900289167451257,710.8996020133114
1.1935042083902028,120.64562971751641,2.489645775811465,711.0421451916161
1.193007931139212,120.6449543509745,2.4892626348767384,711.1720812771752
1.1925171054050814,120.64420733675182,2.488879493940943,711.3025245479414
1.1920208296670953,120.64519087187236,2.488496353008479,711.4194156509813
1.1915190993947495,120.64645863147507,2.4881132120738503,711.5173507366593
1.1910228221437853,120.64972600508969,2.4877300711370527,711.6213432939454
1.1905265448928224,120.65456658868975,2.487346930202487,711.7033269097101
1.1900302676503436,120.6613556809209,2.4869630073252136,711.7999414967361
1.1895339903993947,120.66995429497315,2.4865798659727893,711.8644546159301
1.1890377131484517,120.67994346836474,2.486197507403386,711.9641886327374
1.1885414358975148,120.69116822311324,2.4858143664711543,712.0407805489153
1.1880451586550576,120.70328838339054,2.485431225532355,712.1125403467307
1.187548881404135,120.71615683537004,2.485048084595788,712.1832288248132
1.187052604153214,120.72956155928051,2.484664943663653,712.2538261017248
1.1865563269023038,120.74339809455049,2.4842818027293534,712.2875756018033
1.1860600496513947,120.75712627704661,2.483898661792886,712.3169165688785
1.1855637724047332,120.76979894188973,2.4835155208630497,712.3699922011929
1.1850674951517193,120.78145754268584,2.4831286609850802,712.339568963823
1.184565766409967,120.79188282832423,2.482745518042777,712.3416714723062
1.1840694876380597,120.8011287391068,2.4823660980605498,712.3406692840243
1.1835786634139023,120.8092527982463,2.48198295713085,712.3403634691197
1.1830823861630346,120.81725746110787,2.4815998161923876,712.3639229622632
1.1825861089036946,120.82515175171794,2.481216675253957,712.3880461016668
1.1820898316613102,120.83386912422175,2.480833534324357,712.4408567657773
1.1815935544146976,120.84367638631579,2.4804503933903965,712.5462303906236
1.1810972771617325,120.8553285804218,2.4800672524520677,712.6491499631203
1.1805970610895875,120.86923228008818,2.4796841115225705,712.7672890632402
1.1801007827451409,120.88505874062415,2.4792969706085812,712.8780959676892
1.1796084454240647,120.90238593797186,2.4789138275064335,713.0595953334165
1.179112168173241,120.92123550464255,2.478534688729893,713.1422039839973
1.1786158909224285,120.94098457475314,2.4781515477917364,713.2955483833613
1.1781196136716174,120.96100673557113,2.477768406862412,713.4000471063996
1.1776233364250541,120.98065089133837,2.477385265933125,713.5004698838397
1.1771270591721383,120.99921536727891,2.4770021249950753,713.5711725857377
1.17663078192113,121.01603973573116,2.4766226146238783,713.6296676373984
1.1761345046724636,121.0305630260512,2.4762394756780375,713.6232444608
1.1756382274346162,121.04234631379394,2.4758527021943295,713.6289345807209
1.1751419501838472,121.05107281571819,2.4754695612575177,713.6254725724425
1.1746456729246058,121.05743073498247,2.4750864203284397,713.5854202655488
1.1741493956823204,121.06207288865338,2.4747032793939012,713.5172179193754
1.1736531184358068,121.06624459097657,2.4743201384582947,713.4788582496392
1.1731568411829405,121.07018914397784,2.4739369975293233,713.436062102776
1.1726605639296077,121.07590759736786,2.4735538565981887,713.36086159421
1.1721642866894642,121.08349292279581,2.4731707156604927,713.2704320180269
1.171668009445571,121.09343665098466,2.4727906806357614,713.2174269858199
1.1711717321948472,121.10537322620775,2.4724075414176823,713.0585648155686
1.1706754549441343,121.11831200286808,2.4720212928652106,712.9164982700377
1.1701791776934234,121.1316542351226,2.4716381519298576,712.7349303927668
1.1696829004469598,121.14490283766483,2.4712550109967384,712.5265582242861
1.1691920113586063,121.15790674362376,2.470871870065856,712.2370335366802
1.066953510120068,122.56691596695154,2.470488729130612,711.9435557914348
1.0674541687399703,122.54997075440036,2.4701055881976015,711.6003536884917
1.0679504446274877,122.53324684126278,2.469722447266829,711.2089694547212
1.0684423418634563,122.51980828765002,2.469339306333893,710.8187940737574
1.070427450864646,122.48934395512167,2.4689563343078373,710.4322275488078
1.0709237280971076,122.49255876076879,2.4685731934687856,710.0374216359903
1.0689386191084453,122.50719681090541,2.4681898835353064,709.6280733500305
1.069931173615398,122.4916364026566,2.467806742601419,709.2789378922846
1.0714200053442582,122.4994891151482,2.467423601668667,708.9242086784665
1.0694348963576794,122.49795429837066,2.4670404607370533,708.5732667183968
1.0719162825976174,122.51150004908916,2.4666573198043764,708.2376549891488
1.0724125598405445,122.52651431808229,2.4662741788717373,707.9000863193966
1.0758865005751648,122.67076823880564,2.4658910379391354,707.567977267965
1.076382777826633,122.68893716984059,2.4655078970065714,707.205973867892
1.0729088370855995,122.54434366903942,2.465121988005275,706.7638463362932
1.0768790550717506,122.7041858883665,2.464738845522488,706.4129242959921
1.0753902233362533,122.6505956091644,2.4643584742091056,705.9993506652686
1.0873040269884002,122.44858715307365,2.463975333277792,705.5741659568248
1.0877971545172578,122.44122000010229,2.463592192345418,705.1292567362785
1.077375332312642,122.71715140860852,2.4632090514119813,704.6883064581956
1.0734051143433754,122.56425945198379,2.462825910479683,704.2430401414147
1.074893946097515,122.62909711144438,2.462442769547423,703.7419680655618
1.07836788681987,122.73782910310655,2.4620596286152012,703.1513687227709
1.0778716095704912,122.72900684033492,2.4616764876830186,702.5460005334936
1.0798567185532317,122.73480692946566,2.4612899196881415,701.7557713018896
1.0803529958047646,122.72167015818434,2.460906776820395,700.9219649426093
1.0818418275488133,122.65912838378723,2.460527064886702,699.8874092971713
1.0823381047982612,122.63459290227864,2.4145531766267534,202.01490234224525
1.086807750697657,122.4588137627458,2.4149363156519534,206.96083269558824
1.0882934317667983,122.43522705108052,2.4153164352416123,212.251265692821
1.073901391592681,122.58543051756118,2.4156995761682953,217.46801228834127
1.0743976688419998,122.60716771422231,2.4160827170928316,222.72733045516424
1.0788595047008873,122.74329622079202,2.4164658580152234,228.024949906004
1.0793557833764926,122.74153270894605,2.416848998944267,233.34395286336022
1.0808492730499468,122.70396515103357,2.41723213987336,238.69213422536035
1.0813455502993787,122.68266452002173,2.41761528079591,244.06546404598652
1.0828320796297008,122.61022177757052,2.417998421725112,249.38397896876327
1.0863083227771577,122.47040745768105,2.418385144442714,254.99812917066194
1.0887897090078702,122.43295466098614,2.418768283133816,260.1663712241398
1.083328357571788,122.58646816492046,2.4191478445064276,265.59474551635356
1.0892859862574287,122.43419223918119,2.4195309854380342,270.90865795743133
1.0858120455276514,122.48435345692384,2.4199141263608954,276.2144171153049
1.0838269365318125,122.56389451038054,2.4202972672838112,281.49501282636214
1.08978226350699,122.43941295968199,2.4206804082155755,286.8142310209487
1.085315768278148,122.50059464727183,2.421059495885857,291.8596228712302
1.0843232137834093,122.5413313382569,2.4214426393179016,297.3445538671706
1.0902785407565643,122.44927611092956,2.421829830997977,302.5372555447293
1.0848194910371312,122.51973338463266,2.422212971929943,307.84484391736106
1.0907799885383822,122.46250607710773,2.4225961128531632,313.15246459428096
1.0912762642117815,122.47724591524405,2.4229792537808366,318.43545531608584
1.0917673724968495,122.49278063568613,2.423362394704155,323.7058340863101
1.0922636497464524,122.51149626513532,2.423745535627532,328.9398940339134
1.0927599269960628,122.53406982132442,2.4241286765597505,334.1034176006626
1.093256204237205,122.5521183434373,2.4245118174832228,339.2624512084272
1.0937524814868336,122.56425794260572,2.4248911528190455,344.138372939775
1.0942487587364647,122.569903328319,2.4252742960854112,349.2995413370496
1.094750125912455,122.5677810084353,2.4256612402671376,354.1969012816094
1.0952464016244217,122.56020613609913,2.4260443811908114,359.1392690736883
1.0957375904769384,122.54201614027299,2.4264275221233316,364.0512383383438
1.0962338677266028,122.51822447152378,2.4268106630514983,368.9733701007579
1.096730144967799,122.48796512654965,2.42719380397532,373.9300315781443
1.0972264222174817,122.45280680567453,2.4275769449068876,378.9131679747073
1.0977226994671667,122.41448950056188,2.427960085839602,383.93672141528344
1.098218976710856,122.37480073121603,2.428343226764667,389.02510161708767
1.0987152539605582,122.33527898916088,2.428725500796861,394.1178058404448
1.0992115312078012,122.2974924222762,2.4291086422565447,399.32521149730974
1.0997078084575191,122.26233247366281,2.429492649550054,404.5167225889559
1.1002040857072448,122.2300674349495,2.429875790474216,409.7238142504777
1.100700362956978,122.20072699412896,2.4302589314050227,414.9249263497361
1.1011966401982427,122.17276242622778,2.430642072333677,420.06907332571205
1.1016929174479937,122.14754504811907,2.431025213260181,425.1724959740714
1.1021851224345474,122.12717232608028,2.4314083541911318,430.2084253606483
1.102681400897781,122.11094583672717,2.4317914951199286,435.17086624594947
1.103181749188808,122.09752355803485,2.4321746360465757,440.0162502672417
1.1036780264385866,122.08766097926483,2.4325598487769504,444.86470172873527
1.1041743036883724,122.08022554651413,2.4329429884582106,449.4805284569722
1.10467058092969,122.07595957430982,2.4333240588333953,454.0652736595537
1.1051668581794936,122.07360525623109,2.4337071997624298,458.5698284841803
1.1056631354292994,122.07344034282164,2.434090340691511,462.99300087035
1.1061535960635882,122.07340297628403,2.434473481620638,467.37206873494233
1.1066498750525124,122.0745243211113,2.4348566225498125,471.7269861100622
1.1071519671702967,122.07397733298883,2.435239763480133,476.03419336780985
1.1076482444201352,122.07311988697612,2.435622904409399,480.36759381511683
1.108144521669981,122.07087938899184,2.4360060453376127,484.649873069117
1.1086407989198344,122.06780025026016,2.436392195296164,489.0512665498094
1.109137076161219,122.06421910756406,2.4367753344296976,493.3121117694384
1.1096333534110896,122.06073908659891,2.4371554681258267,497.6658619010732
1.1101292671242082,122.05790941957491,2.437538609055323,502.05981126830056
1.1106255444739221,122.05644552112126,2.4379217499848655,506.5126331366115
1.1111221851522624,122.05651393078435,2.438304890914453,511.0171080939501
1.1116184624021601,122.05839997488333,2.4386880318440856,515.6134613342109
1.112114739652065,122.06250866585262,2.4390711727732137,520.2561445750307
1.1126110168935013,122.06782204316887,2.439454313702937,524.9635633397606
1.1131072941434235,122.07444202184749,2.4398374546332544,529.6825102985346
1.113603571393348,122.08133118386414,2.440220595563067,534.417079916097
1.1141049381803954,122.08884147432661,2.440603736492924,539.1197963766441
1.1146012139194736,122.09500705532459,2.4409868774228256,543.7763242433406
1.1150924031346994,122.10163584165885,2.4413700183527722,548.3748261521018
1.1155886803846555,122.10678797507796,2.4417531592805637,552.9387911073965
1.1160849576261431,122.11120361520625,2.4421363002106,557.4348967282637
1.1165812348761164,122.1148811903334,2.442519441142878,561.9666007204066
1.117077512126092,122.11803431294591,2.4428978251451476,566.3743225025007
1.1175737893760798,122.12084057388635,2.4432809688718606,570.9059584762922
1.1180764073964191,122.12402128154233,2.443668863933379,575.4417671217959
1.1185726827623315,122.12658432894106,2.444052004863633,579.889898705277
1.1190626211176034,122.13066078206705,2.444435145791731,584.2840147525744
1.1195588983676172,122.13510155939727,2.4448182867220742,588.5695943461216
1.1200551756176387,122.14081506543451,2.445201427654658,592.7584920158469
1.1205514528591916,122.14739216423895,2.445584568582886,596.8476527900788
1.1210477301092299,122.15496773396872,2.4459677095089583,600.8260547466659
1.1215440073662388,122.16265771659089,2.4463508504416738,604.7405127712725
1.1220402846099322,122.16979348574814,2.446732173105678,608.5822513266246
1.1225365618530225,122.17578199380632,2.44711531509147,612.4119095610769
1.1230328391009687,122.18028196031804,2.447500273233472,616.3592060040401
1.1235291163510406,122.18305225126257,2.4478834141685537,620.6258315584654
1.1240253935926432,122.18449768790897,2.448266555094881,624.4400048463455
1.1245216708427315,122.18534841866715,2.448649696025653,627.785449532275
1.1250179480928222,122.18618604439159,2.4490328369608623,631.5144448430549
1.1255142253349844,122.18719036273478,2.449415977888416,635.1879545366901
1.12601050258721,122.18810106527602,2.449799118814914,638.7141687437395
1.1265067798367883,122.18930512028503,2.450182259749152,642.0387019849468
1.1270030570847913,122.19089752051731,2.4505665210686893,645.3039030585268
1.1274993343349196,122.19279834476872,2.4509496613480715,648.4440208418176
1.1279956115850551,122.1943783876588,2.4513316825334153,651.516906995719
1.1284918888267215,122.19577371819412,2.451714823460122,654.4631990020326
1.1289881660768735,122.19573772675797,2.4520979643956666,657.3732599827968
1.1294788343253535,122.1948177769608,2.4524811053312505,660.1152645376759
1.1299751132115712,122.18886158441438,2.4528642462580774,662.8335550088863
1.1304769978210065,122.18204443783421,2.4532473871882488,665.4043748724139
1.1309732750690655,122.16776000514216,2.4536305281239565,667.8803812183722
1.1314695523192502,122.14877100800423,2.454013669052006,670.260909411039
1.1319658295609656,122.12341082300638,2.454400869025323,672.516062855699
1.1324621068111664,122.09213591787466,2.454784007636425,674.5854626297032
1.1329583840613695,122.05500068665458,2.4551630918463005,676.593704484415
1.133450783579485,122.0142864035025,2.4555462327734157,678.5290087392162
1.1339470619633079,121.96674240246985,2.455929373707168,680.3522268589634
1.1344472158056724,121.91726715563112,2.456312514643159,682.155438776247
1.1349434930537872,121.86451692438932,2.4566956555725907,683.9220940449723
1.1354397703040273,121.81030894967141,2.457078796502616,685.6872642128379
1.1359360475542744,121.75544037133417,2.4574619374387265,687.4569999187233
1.1364323247960522,121.70114141874548,2.457845078367728,689.2405334423685
1.1369286020463152,121.64843312859969,2.458232425360575,690.984309162265
1.1374264546290846,121.5973447969999,2.4586155639039946,692.7775702787429
1.137922731417062,121.54896388736495,2.4589945011588252,694.3815899681805
1.1384174337928998,121.50343391896058,2.4593776420907356,696.0039681827444
1.1389137110389513,121.46110974672823,2.4597607830248855,697.420452740628
1.1394099882892466,121.42241931492656,2.460143923956873,698.743417404152
1.1399062655310723,121.3836969396939,2.353247605985966,9.780611315721996
1.1404025427813835,121.34820124790616,2.35363074690153,13.93993638652399
1.1408988200316967,121.31905713166087,2.354013887817181,16.763337832976152
1.14139931881726,121.2954494076809,2.3543970287329197,27.34511611546008
1.1418955948485927,121.27551435002691,2.354780169648745,36.61896569914266
1.1423876517784475,121.26181257456201,2.355163310564657,45.79622235107596
1.1428839290245536,121.25104229096777,2.3555464514795554,53.78414443934234
1.143380206283379,121.24596564608339,2.3559295923956407,61.1095535283271
1.1438764835337332,121.24447738950649,2.3563127333129104,67.55547122995523
1.1443727607671466,121.24859252191455,2.3566988131184825,73.26410992304666
1.1448690380175188,121.25584038150421,2.357081951879464,78.29013197921361
1.1453698292154986,121.26768932414784,2.357462156061934,82.55216564552381
1.1458661051582173,121.28022674162825,2.3578452969784447,86.22771276186616
1.1463578697644292,121.29551265719184,2.3582284378928398,89.27008651415122
1.1468541470105893,121.31088004562487,2.3586115788095205,91.8040316388789
1.1473504242609927,121.32640064111662,2.3589947197284826,93.90448441832856
1.1478467015029266,121.34094656537805,2.3593778606431295,95.69020904267092
1.148342978753346,121.35372815785666,2.359761001560061,97.2073725370172
1.1488392560131921,121.36447522035314,2.360144142479273,98.6448056346572
1.149335533259384,121.37290469801145,2.360530814469634,100.02153192625336
1.149831810504635,121.3786028027676,2.360913952820932,101.13372870643678
1.1503280877508404,121.38158846680882,2.3612935652264113,101.98348853092517
1.1508243649970538,121.38202825148926,2.3616767061481507,102.81392801727054
1.1513206422559865,121.3803385955306,2.362059847063375,103.5248433959065
