# x(m), q(W/m2)
0.000000000000000000e+00,4.472212908135704696e+06
4.963206074668159631e-04,3.425751257308053784e+06
9.926412149336319261e-04,2.494987721937241964e+06
1.488961822400450058e-03,1.989982300595322857e+06
1.985282429867259949e-03,1.707569415297292639e+06
2.481603037334080032e-03,1.523375731210561935e+06
2.977923644800890141e-03,1.402680250717893941e+06
3.474244252267710224e-03,1.323794985991438152e+06
3.970564859734530307e-03,1.264867671294956468e+06
4.466885467201340415e-03,1.217931283419762272e+06
4.963206074668160064e-03,1.175787808693274390e+06
5.459526682134970173e-03,1.137541309154778020e+06
5.955847289601789822e-03,1.103864845208893297e+06
6.452167897068599930e-03,1.075087182361801621e+06
6.948488504535420447e-03,1.048967042769545922e+06
7.444809112002240097e-03,1.025549150253680884e+06
7.941129719469050205e-03,1.005005066222705063e+06
8.437450326935869854e-03,9.862282462568958290e+05
8.933770934402680830e-03,9.690432842604040634e+05
9.430091541869500479e-03,9.532676500917682424e+05
9.926412149336320129e-03,9.398216021387351211e+05
1.042273275680309988e-02,9.273697709440487670e+05
1.091905336427000106e-02,9.156262578028605785e+05
1.141537397173679989e-02,9.042244685211890610e+05
1.191169457920360046e-02,8.941978548781244317e+05
1.240801518667040103e-02,8.850457319999301108e+05
1.290433579413719986e-02,8.766605881905910792e+05
1.340065640160400043e-02,8.684669963176321471e+05
1.389697700907089987e-02,8.606272609090580372e+05
1.439329761653770044e-02,8.528907062464709161e+05
1.488961822400450101e-02,8.453104621021519415e+05
1.538593883147129984e-02,8.390755085556166014e+05
1.588225943893810041e-02,8.332906355024481891e+05
1.637858004640490098e-02,8.279076603858876042e+05
1.687490065387180216e-02,8.226958225214289268e+05
1.737122126133860273e-02,8.171894727110269014e+05
1.786754186880539982e-02,8.115441868658245075e+05
1.836386247627220039e-02,8.058851202153853374e+05
1.886018308373900096e-02,8.008425115949456813e+05
1.935650369120579806e-02,7.965778427677770378e+05
1.985282429867260209e-02,7.926332412614275236e+05
2.034914490613949981e-02,7.890477685329644009e+05
2.084546551360630037e-02,7.856990573450661032e+05
2.134178612107310094e-02,7.822246728737539379e+05
2.183810672853989804e-02,7.784847312318304321e+05
2.233442733600670208e-02,7.746300191493424354e+05
2.283074794347350264e-02,7.705165017420467921e+05
2.332706855094029974e-02,7.663145065679181134e+05
2.382338915840710031e-02,7.626062861977210268e+05
2.431970976587399802e-02,7.597294262541148346e+05
2.481603037334080206e-02,7.571340080711795017e+05
2.531235098080760262e-02,7.548382973892121809e+05
2.580867158827439972e-02,7.525520528126985300e+05
2.630499219574120029e-02,7.502501123254109407e+05
2.680131280320800086e-02,7.480701414608808700e+05
2.729763341067479795e-02,7.453915254286827985e+05
2.779395401814170261e-02,7.427336287533525610e+05
2.829027462560849970e-02,7.398577239489654312e+05
2.878659523307530027e-02,7.369022725604912266e+05
2.928291584054210084e-02,7.339672271829870297e+05
2.977923644800889794e-02,7.311404615917307092e+05
3.027555705547570197e-02,7.286864612382747000e+05
3.077187766294250254e-02,7.267343841802969109e+05
3.126819827040940025e-02,7.249770624378800858e+05
3.176451887787620082e-02,7.234452873454010114e+05
3.226083948534300139e-02,7.220499153689054074e+05
3.275716009280980195e-02,7.206770029171776259e+05
3.325348070027659558e-02,7.191839223038633354e+05
3.374980130774339615e-02,7.174350987756708637e+05
3.424612191521020366e-02,7.155612744633790571e+05
3.474244252267710137e-02,7.136362623060308397e+05
3.523876313014390194e-02,7.116079922992291395e+05
3.573508373761070250e-02,7.094733463538886281e+05
3.623140434507750307e-02,7.072443664970347891e+05
3.672772495254430364e-02,7.050111490858101752e+05
3.722404556001109727e-02,7.028911290374768432e+05
3.772036616747789783e-02,7.009636265204448719e+05
3.821668677494469840e-02,6.991503338893784676e+05
3.871300738241159611e-02,6.977552056398643181e+05
3.920932798987840362e-02,6.963871278023780324e+05
3.970564859734520419e-02,6.951703999063672964e+05
4.020196920481200475e-02,6.940601506196769187e+05
4.069828981227880532e-02,6.929861089788601967e+05
4.119461041974559895e-02,6.918929507791916840e+05
4.169093102721239952e-02,6.907659943193282234e+05
4.218725163467920009e-02,6.894626969813654432e+05
4.268357224214609780e-02,6.880958056265076157e+05
4.317989284961289836e-02,6.866091535820919089e+05
4.367621345707969893e-02,6.849902648138101213e+05
4.417253406454649950e-02,6.832350282953489805e+05
4.466885467201330701e-02,6.814697056888693478e+05
4.516517527948010063e-02,6.797827859367972706e+05
4.566149588694700528e-02,6.781996694648661651e+05
4.615781649441379891e-02,6.766883090197780402e+05
4.665413710188059948e-02,6.752356493291294901e+05
4.715045770934740005e-02,6.738463267422565259e+05
4.764677831681420062e-02,6.725333278076689458e+05
4.814309892428100118e-02,6.713099401209402131e+05
4.863941953174780175e-02,6.701970101385097951e+05
4.913574013921469946e-02,6.692154066678980598e+05
4.963206074668150697e-02,6.682963870625800919e+05
5.012838135414830060e-02,6.674994846361171221e+05
5.062470196161510116e-02,6.668160696222112747e+05
5.112102256908190173e-02,6.661743086341652088e+05
5.161734317654870230e-02,6.654767366515230387e+05
5.211366378401550287e-02,6.646919874376005027e+05
5.260998439148230343e-02,6.638390261012595147e+05
5.310630499894920115e-02,6.629465194479366764e+05
5.360262560641600171e-02,6.620329365675227018e+05
5.409894621388279534e-02,6.610810900834127096e+05
5.459526682134959591e-02,6.601177859822267201e+05
5.509158742881640342e-02,6.591200646937964484e+05
5.558790803628320398e-02,6.580997271984124091e+05
5.608422864375000455e-02,6.570739633065785747e+05
5.658054925121690226e-02,6.560440576469600201e+05
5.707686985868370283e-02,6.549987771144128637e+05
5.757319046615050340e-02,6.539446912424770417e+05
5.806951107361729703e-02,6.529053432942040963e+05
5.856583168108409759e-02,6.519000763885211200e+05
5.906215228855089816e-02,6.509265691971962806e+05
5.955847289601769873e-02,6.499751463057020446e+05
6.005479350348460338e-02,6.490404612678376725e+05
6.055111411095140395e-02,6.481232790733135771e+05
6.104743471841820451e-02,6.472302831196743064e+05
6.154375532588500508e-02,6.463688200953135965e+05
6.204007593335180565e-02,6.455455447679404169e+05
6.253639654081860622e-02,6.447584234146411764e+05
6.303271714828539984e-02,6.440234994334250223e+05
6.352903775575220735e-02,6.433074556831043446e+05
6.402535836321900098e-02,6.426259785610142862e+05
6.452167897068590563e-02,6.419809302473270800e+05
6.501799957815269926e-02,6.413805861162057845e+05
6.551432018561949289e-02,6.408277662163105560e+05
6.601064079308630039e-02,6.403029005236591911e+05
6.650696140055309402e-02,6.397736481335543795e+05
6.700328200801990153e-02,6.392179070595771773e+05
6.749960261548679230e-02,6.386321281760351267e+05
6.799592322295361368e-02,6.380328501351324376e+05
6.849224383042040731e-02,6.374332376301098848e+05
6.898856443788720094e-02,6.368333038564028684e+05
6.948488504535400845e-02,6.362318009464694187e+05
6.998120565282080208e-02,6.356335888170589460e+05
7.047752626028760958e-02,6.350429494481957518e+05
7.097384686775450036e-02,6.344585738202743232e+05
7.147016747522130786e-02,6.338751659484470729e+05
7.196648808268810149e-02,6.332887192886245903e+05
7.246280869015490900e-02,6.326986811484068166e+05
7.295912929762170263e-02,6.321091651127719088e+05
7.345544990508849625e-02,6.315265694766512606e+05
7.395177051255530376e-02,6.309489488471982768e+05
7.444809112002219453e-02,6.303605010028653778e+05
7.494441172748900204e-02,6.297546942948104115e+05
7.544073233495579567e-02,6.291532761660380056e+05
7.593705294242260317e-02,6.285675614871275611e+05
7.643337354988939680e-02,6.279949191584502114e+05
7.692969415735619043e-02,6.274260217831707560e+05
7.742601476482299794e-02,6.268178225643382175e+05
7.792233537228988871e-02,6.262082549759406829e+05
7.841865597975659907e-02,6.255837658624850446e+05
7.891497658722350372e-02,6.249500785222258419e+05
7.941129719469031123e-02,6.243161315917298198e+05
7.990761780215710486e-02,6.236899209060035646e+05
8.040393840962391236e-02,6.230718104041115148e+05
8.090025901709070599e-02,6.224630982474441407e+05
8.139657962455761064e-02,6.218656697123742197e+05
8.189290023202440427e-02,6.212788932133140042e+05
8.238922083949119790e-02,6.207021541578830220e+05
8.288554144695800541e-02,6.201330310858682496e+05
8.338186205442479904e-02,6.195705165443490259e+05
8.387818266189160654e-02,6.190158578782932600e+05
8.437450326935840017e-02,6.184842696399951819e+05
8.487082387682519380e-02,6.179589678982220357e+05
8.536714448429200131e-02,6.174323412450674223e+05
8.586346509175889208e-02,6.169042790019190870e+05
8.635978569922569958e-02,6.163654003285578219e+05
8.685610630669249321e-02,6.158173656563115073e+05
8.735242691415930072e-02,6.152639150380938081e+05
8.784874752162609435e-02,6.147127155829536496e+05
8.834506812909290185e-02,6.141730337448114296e+05
8.884138873655979263e-02,6.136468694612607360e+05
8.933770934402661401e-02,6.131294246505229967e+05
8.983402995149340764e-02,6.126147239638511091e+05
9.033035055896020127e-02,6.121271047316669719e+05
9.082667116642700877e-02,6.116437064406918362e+05
9.132299177389380240e-02,6.111761899561350001e+05
9.181931238136060991e-02,6.107182656503461767e+05
9.231563298882740354e-02,6.102643662848873064e+05
9.281195359629430819e-02,6.098128790168873966e+05
9.330827420376110182e-02,6.093640524298675591e+05
9.380459481122790932e-02,6.089184628772132564e+05
9.430091541869470295e-02,6.084759957516528666e+05
9.479723602616149658e-02,6.080368409034486394e+05
9.529355663362830409e-02,6.076018262043484719e+05
9.578987724109509772e-02,6.071680567702925764e+05
9.628619784856190522e-02,6.067274360004480695e+05
9.678251845602879599e-02,6.062734581882519415e+05
9.727883906349560350e-02,6.058136513145705685e+05
9.777515967096239713e-02,6.053576609140059445e+05
9.827148027842919076e-02,6.049067408928443911e+05
9.876780088589599826e-02,6.044609674854771001e+05
9.926412149336279189e-02,6.040076552686148789e+05
9.976044210082971042e-02,6.035543087451228639e+05
1.002567627082959906e-01,6.030944775664350018e+05
1.007530833157630062e-01,6.026292027003812836e+05
1.012494039232300080e-01,6.021614558177299332e+05
1.017457245306970098e-01,6.016939934735014103e+05
1.022420451381639978e-01,6.012289112489189720e+05
1.027383657456309995e-01,6.007678136605046457e+05
1.032346863530970021e-01,6.003118178400137695e+05
1.037310069605640039e-01,5.998615896532034967e+05
1.042273275680310057e-01,5.994176286305511603e+05
1.047236481754980075e-01,5.989803005314948969e+05
1.052199687829649954e-01,5.985497219475278398e+05
1.057162893904309980e-01,5.981255672260744032e+05
1.062126099978979998e-01,5.977066179458898259e+05
1.067089306053650016e-01,5.972920989600279136e+05
1.072052512128320034e-01,5.968811744240301196e+05
1.077015718202989913e-01,5.964726235791879008e+05
1.081978924277649939e-01,5.960664893786713947e+05
1.086942130352319957e-01,5.956706915289962199e+05
1.091905336426989975e-01,5.952809717972205253e+05
1.096868542501659993e-01,5.949007820120797260e+05
1.101831748576330011e-01,5.945264989119193051e+05
1.106794954651000029e-01,5.941501431896998547e+05
1.111758160725659916e-01,5.937577761542751687e+05
1.116721366800330073e-01,5.933641925442685606e+05
1.121684572875000091e-01,5.929619825513912365e+05
1.126647778949670109e-01,5.925527382451524027e+05
1.131610985024339988e-01,5.921393320291297277e+05
1.136574191099000014e-01,5.917251908391200705e+05
1.141537397173670032e-01,5.913151380173435900e+05
1.146500603248340050e-01,5.909125282182878582e+05
1.151463809323010068e-01,5.905162305812005652e+05
1.156427015397679947e-01,5.901241478629139019e+05
1.161390221472339973e-01,5.897369223749642260e+05
1.166353427547009991e-01,5.893554536935365759e+05
1.171316633621680009e-01,5.889916236972274492e+05
1.176279839696350027e-01,5.886300534115837654e+05
1.181243045771019906e-01,5.882760075091121253e+05
1.186206251845689924e-01,5.879249867461939575e+05
1.191169457920349950e-01,5.875726339102928760e+05
1.196132663995019968e-01,5.872168536496068118e+05
1.201095870069689986e-01,5.868544957139444305e+05
1.206059076144360143e-01,5.864913801789645804e+05
1.211022282219030022e-01,5.861252986329016276e+05
1.215985488293689909e-01,5.857574524054707726e+05
1.220948694368360066e-01,5.853890088640208123e+05
1.225911900443030084e-01,5.850206916202032007e+05
1.230875106517700102e-01,5.846538105658027343e+05
1.235838312592369981e-01,5.842900803328757174e+05
1.240801518667039999e-01,5.839290753481385764e+05
1.245764724741700025e-01,5.835684167648621369e+05
1.250727930816370181e-01,5.832072927830253029e+05
1.255691136891040061e-01,5.828467541029099375e+05
1.260654342965709940e-01,5.825006380465227412e+05
1.265617549040380097e-01,5.821601612122277729e+05
1.270580755115039984e-01,5.818273747091472615e+05
1.275543961189710140e-01,5.814988381993906805e+05
1.280507167264380020e-01,5.811697847029491095e+05
1.285470373339049899e-01,5.808381661716768285e+05
1.290433579413720055e-01,5.805047709523661761e+05
1.295396785488389935e-01,5.801685099058127962e+05
1.300359991563050099e-01,5.798334461341854185e+05
1.305323197637719979e-01,5.794981170981124742e+05
1.310286403712389858e-01,5.791626614023220027e+05
1.315249609787060014e-01,5.788280958200305467e+05
1.320212815861729894e-01,5.784957487773577450e+05
1.325176021936399773e-01,5.781678282856023870e+05
1.330139228011069930e-01,5.778438662567726569e+05
1.335102434085729817e-01,5.775231121173518477e+05
1.340065640160399973e-01,5.772062517857468920e+05
1.345028846235069853e-01,5.768927609374583699e+05
1.349992052309740287e-01,5.765821069836089155e+05
1.354955258384410166e-01,5.762737661385351093e+05
1.359918464459080045e-01,5.759672073323187651e+05
1.364881670533740210e-01,5.756619365349261789e+05
1.369844876608410089e-01,5.753574198639979586e+05
1.374808082683080246e-01,5.750529977515741484e+05
1.379771288757750125e-01,5.747479125466058031e+05
1.384734494832420004e-01,5.744430140575912083e+05
1.389697700907090161e-01,5.741346133530557854e+05
1.394660906981750048e-01,5.738257217196256388e+05
1.399624113056420205e-01,5.735155178572637960e+05
1.404587319131090084e-01,5.732121833731265506e+05
1.409550525205759963e-01,5.729130099964543479e+05
1.414513731280430120e-01,5.726196249418281950e+05
1.419476937355099999e-01,5.723301764835631475e+05
1.424440143429770156e-01,5.720356594864517683e+05
1.429403349504430043e-01,5.717366169115563389e+05
1.434366555579099922e-01,5.714317166090882383e+05
1.439329761653770079e-01,5.711192411412533838e+05
1.444292967728439958e-01,5.708007116333552403e+05
1.449256173803110115e-01,5.704779826634288765e+05
1.454219379877779994e-01,5.701529693707867991e+05
1.459182585952439881e-01,5.698270119088470237e+05
1.464145792027110038e-01,5.695011929580867290e+05
1.469108998101779917e-01,5.691764253837733995e+05
1.474072204176450074e-01,5.688546483131614514e+05
1.479035410251119953e-01,5.685377636789252283e+05
1.483998616325789832e-01,5.682264640479874797e+05
1.488961822400449997e-01,5.679192798608995508e+05
1.493925028475119876e-01,5.676151803288289811e+05
1.498888234549790033e-01,5.673148527919857297e+05
1.503851440624459912e-01,5.670203834835026646e+05
1.508814646699129791e-01,5.667327319153589197e+05
1.513777852773800225e-01,5.664565291504397755e+05
1.518741058848470105e-01,5.661816267551677302e+05
1.523704264923129992e-01,5.659101536780702882e+05
1.528667470997800149e-01,5.656398403382841498e+05
1.533630677072470028e-01,5.653693119569917908e+05
1.538593883147140184e-01,5.650978144611226162e+05
1.543557089221810064e-01,5.648251081279217033e+05
1.548520295296480220e-01,5.645515346587890526e+05
1.553483501371140107e-01,5.642782749952335143e+05
1.558446707445809987e-01,5.640060869701975025e+05
1.563409913520480143e-01,5.637356089354131836e+05
1.568373119595150023e-01,5.634674119854272576e+05
1.573336325669820179e-01,5.632018254218908260e+05
1.578299531744490058e-01,5.629391180355285760e+05
1.583262737819150223e-01,5.626795637963028857e+05
1.588225943893820102e-01,5.624234398644929752e+05
1.593189149968489982e-01,5.621710986712607555e+05
1.598152356043160138e-01,5.619227270106342621e+05
1.603115562117830017e-01,5.616777642959209625e+05
1.608078768192499897e-01,5.614348743317995686e+05
1.613041974267160061e-01,5.611928845218516653e+05
1.618005180341829941e-01,5.609519267782021780e+05
1.622968386416500097e-01,5.607133915730076842e+05
1.627931592491169976e-01,5.604785820830550510e+05
1.632894798565839856e-01,5.602473196678324603e+05
1.637858004640510012e-01,5.600174589874204248e+05
1.642821210715179892e-01,5.597859255970555823e+05
1.647784416789840056e-01,5.595498742684135213e+05
1.652747622864509935e-01,5.593093048987361835e+05
1.657710828939180092e-01,5.590618250584314810e+05
1.662674035013849971e-01,5.588106817800987046e+05
1.667637241088519851e-01,5.585500496767809382e+05
1.672600447163190007e-01,5.582910685480252141e+05
1.677563653237849894e-01,5.580283937889431836e+05
1.682526859312520051e-01,5.577624060988459969e+05
1.687490065387189930e-01,5.574941609181569656e+05
1.692453271461860087e-01,5.572242887170070317e+05
1.697416477536530244e-01,5.569531146218922222e+05
1.702379683611200123e-01,5.566808932258662535e+05
1.707342889685860010e-01,5.564078502357535763e+05
1.712306095760530167e-01,5.561342816666489234e+05
1.717269301835200046e-01,5.558604762528185965e+05
1.722232507909870203e-01,5.555867213868189137e+05
1.727195713984540082e-01,5.553133473683098564e+05
1.732158920059209961e-01,5.550406715354939224e+05
1.737122126133880118e-01,5.547689236508745234e+05
1.742085332208540005e-01,5.544982200381477596e+05
1.747048538283210162e-01,5.542286027940826025e+05
1.752011744357880041e-01,5.539600863614795962e+05
1.756974950432550198e-01,5.536926726916331099e+05
1.761938156507220077e-01,5.534263851628503762e+05
1.766901362581889956e-01,5.531612889009364881e+05
1.771864568656550121e-01,5.528975242951430846e+05
1.776827774731220000e-01,5.526353028047863627e+05
1.781790980805890157e-01,5.523749129485556623e+05
1.786754186880560036e-01,5.521167037041065050e+05
1.791717392955229915e-01,5.518609919168499764e+05
1.796680599029900072e-01,5.516080117592250463e+05
1.801643805104569951e-01,5.513580463737380924e+05
1.806607011179230116e-01,5.511115339953278890e+05
1.811570217253899995e-01,5.508691761377401417e+05
1.816533423328569874e-01,5.506308110817610286e+05
1.821496629403240031e-01,5.504018487436686410e+05
1.826459835477909910e-01,5.501775450737987412e+05
1.831423041552579789e-01,5.499592190846581943e+05
1.836386247627239954e-01,5.497470623236014508e+05
1.841349453701909833e-01,5.495383067044295603e+05
1.846312659776579990e-01,5.493304301566601498e+05
1.851275865851249869e-01,5.491219250418761512e+05
1.856239071925920026e-01,5.489122441378291696e+05
1.861202278000590182e-01,5.487013605928516481e+05
1.866165484075249792e-01,5.484893107365748147e+05
1.871128690149919949e-01,5.482759292971922550e+05
1.876091896224590105e-01,5.480608202273248462e+05
1.881055102299260262e-01,5.478440082854571519e+05
1.886018308373930141e-01,5.476247298389036441e+05
1.890981514448600020e-01,5.474057046471248614e+05
1.895944720523260185e-01,5.471868812748134369e+05
1.900907926597930064e-01,5.469689263173192739e+05
1.905871132672600221e-01,5.467521635038314853e+05
1.910834338747270100e-01,5.465363801007851725e+05
1.915797544821939979e-01,5.463202430379567668e+05
1.920760750896610136e-01,5.461035475586345419e+05
1.925723956971280015e-01,5.458870785724552115e+05
1.930687163045940180e-01,5.456710919911091914e+05
1.935650369120610059e-01,5.454586300065178657e+05
1.940613575195279938e-01,5.452473822346637025e+05
1.945576781269950095e-01,5.450393345948280767e+05
1.950539987344619974e-01,5.448340263573201373e+05
1.955503193419290131e-01,5.446302514955441002e+05
1.960466399493950018e-01,5.444266735749068903e+05
1.965429605568619897e-01,5.442222358670736430e+05
1.970392811643290054e-01,5.440163904843224445e+05
1.975356017717959933e-01,5.438093367013880052e+05
