# x(m), q(W/m2)
0.000000000000000000e+00,4.518998797072516754e+06
4.963206074668159631e-04,3.421877244081364479e+06
9.926412149336319261e-04,2.491328045413053129e+06
1.488961822400450058e-03,1.986011282201478491e+06
1.985282429867259949e-03,1.702494388846674934e+06
2.481603037334080032e-03,1.513182093919005012e+06
2.977923644800890141e-03,1.376313206546214875e+06
3.474244252267710224e-03,1.270359254805938806e+06
3.970564859734530307e-03,1.185049823683436960e+06
4.466885467201340415e-03,1.114953791602100944e+06
4.963206074668160064e-03,1.057176793153263861e+06
5.459526682134970173e-03,1.009121501711995690e+06
5.955847289601789822e-03,9.689124200593046844e+05
6.452167897068599930e-03,9.366565050641128328e+05
6.948488504535420447e-03,9.143716434493387351e+05
7.444809112002240097e-03,9.055098975947941653e+05
7.941129719469050205e-03,9.121676763214566745e+05
8.437450326935869854e-03,9.277090988753479905e+05
8.933770934402680830e-03,9.490092358892259654e+05
9.430091541869500479e-03,9.713433717812573304e+05
9.926412149336320129e-03,9.929969266690133372e+05
1.042273275680309988e-02,1.009673762510535074e+06
1.091905336427000106e-02,1.016878625685656909e+06
1.141537397173679989e-02,1.018884315658909269e+06
1.191169457920360046e-02,1.018695529672522563e+06
1.240801518667040103e-02,1.016376500426800223e+06
1.290433579413719986e-02,1.012463324461353710e+06
1.340065640160400043e-02,1.006445777964349487e+06
1.389697700907089987e-02,9.990790130446261028e+05
1.439329761653770044e-02,9.913432803779921960e+05
1.488961822400450101e-02,9.842775097968669143e+05
1.538593883147129984e-02,9.769899712036945857e+05
1.588225943893810041e-02,9.704590512928643730e+05
1.637858004640490098e-02,9.641529064929131418e+05
1.687490065387180216e-02,9.575452771621857537e+05
1.737122126133860273e-02,9.510775462366648717e+05
1.786754186880539982e-02,9.445089730512110982e+05
1.836386247627220039e-02,9.383311565848466707e+05
1.886018308373900096e-02,9.331042561925121117e+05
1.935650369120579806e-02,9.279467217246247455e+05
1.985282429867260209e-02,9.231742161090419395e+05
2.034914490613949981e-02,9.186494798613733146e+05
2.084546551360630037e-02,9.143449265669208253e+05
2.134178612107310094e-02,9.098262723692557774e+05
2.183810672853989804e-02,9.047898003174510086e+05
2.233442733600670208e-02,8.994310435724896379e+05
2.283074794347350264e-02,8.938645125990861561e+05
2.332706855094029974e-02,8.887274097191704204e+05
2.382338915840710031e-02,8.840761729819340399e+05
2.431970976587399802e-02,8.803076736555012176e+05
2.481603037334080206e-02,8.768837022212720476e+05
2.531235098080760262e-02,8.736877647741321707e+05
2.580867158827439972e-02,8.706090472028933000e+05
2.630499219574120029e-02,8.676418781961698551e+05
2.680131280320800086e-02,8.647048575837783283e+05
2.729763341067479795e-02,8.612998531959266402e+05
2.779395401814170261e-02,8.577911973466053605e+05
2.829027462560849970e-02,8.539241066974343266e+05
2.878659523307530027e-02,8.496776601774438750e+05
2.928291584054210084e-02,8.454770996823711321e+05
2.977923644800889794e-02,8.416814709267552244e+05
3.027555705547570197e-02,8.385976964211204322e+05
3.077187766294250254e-02,8.357685848551681265e+05
3.126819827040940025e-02,8.333047727031512186e+05
3.176451887787620082e-02,8.312428906362941489e+05
3.226083948534300139e-02,8.293251801571124233e+05
3.275716009280980195e-02,8.272730487248074496e+05
3.325348070027659558e-02,8.250750314283740008e+05
3.374980130774339615e-02,8.228790039096097462e+05
3.424612191521020366e-02,8.204692135558523005e+05
3.474244252267710137e-02,8.179634216644472908e+05
3.523876313014390194e-02,8.152081473910782952e+05
3.573508373761070250e-02,8.122392087587872520e+05
3.623140434507750307e-02,8.091435603913974483e+05
3.672772495254430364e-02,8.059603528368223924e+05
3.722404556001109727e-02,8.028845142371583497e+05
3.772036616747789783e-02,8.001560798097924562e+05
3.821668677494469840e-02,7.979709701515955385e+05
3.871300738241159611e-02,7.958567411522001494e+05
3.920932798987840362e-02,7.939318761094069341e+05
3.970564859734520419e-02,7.921295052295954665e+05
4.020196920481200475e-02,7.904247533363091061e+05
4.069828981227880532e-02,7.888069020244495478e+05
4.119461041974559895e-02,7.872551145403425908e+05
4.169093102721239952e-02,7.857751836141634267e+05
4.218725163467920009e-02,7.838557285214851145e+05
4.268357224214609780e-02,7.818974837817102671e+05
4.317989284961289836e-02,7.797182615342763020e+05
4.367621345707969893e-02,7.775681603257280076e+05
4.417253406454649950e-02,7.754915864313893253e+05
4.466885467201330701e-02,7.733843341251830570e+05
4.516517527948010063e-02,7.711875548456467222e+05
4.566149588694700528e-02,7.689438860928750364e+05
4.615781649441379891e-02,7.667628336867686594e+05
4.665413710188059948e-02,7.646282704036644427e+05
4.715045770934740005e-02,7.625395333626508946e+05
4.764677831681420062e-02,7.605407725110753672e+05
4.814309892428100118e-02,7.590003262620228343e+05
4.863941953174780175e-02,7.575127449491217267e+05
4.913574013921469946e-02,7.561812877000538865e+05
4.963206074668150697e-02,7.549736736226713983e+05
5.012838135414830060e-02,7.538281926131657092e+05
5.062470196161510116e-02,7.526782433921968332e+05
5.112102256908190173e-02,7.514827934742345242e+05
5.161734317654870230e-02,7.502387485342546133e+05
5.211366378401550287e-02,7.489802319220234640e+05
5.260998439148230343e-02,7.477264416515859775e+05
5.310630499894920115e-02,7.464783098426032811e+05
5.360262560641600171e-02,7.452209763194965199e+05
5.409894621388279534e-02,7.439801312057250179e+05
5.459526682134959591e-02,7.426687702389938058e+05
5.509158742881640342e-02,7.413145578370097792e+05
5.558790803628320398e-02,7.398699572690384230e+05
5.608422864375000455e-02,7.383843885569509584e+05
5.658054925121690226e-02,7.369667130879622418e+05
5.707686985868370283e-02,7.356279509191781981e+05
5.757319046615050340e-02,7.343077932598439511e+05
5.806951107361729703e-02,7.329696622403156944e+05
5.856583168108409759e-02,7.316019227303920779e+05
5.906215228855089816e-02,7.302255337754036300e+05
5.955847289601769873e-02,7.288678242214095080e+05
6.005479350348460338e-02,7.275427527945296606e+05
6.055111411095140395e-02,7.262373422172040446e+05
6.104743471841820451e-02,7.249216420578273246e+05
6.154375532588500508e-02,7.235962815828124294e+05
6.204007593335180565e-02,7.223225542200664058e+05
6.253639654081860622e-02,7.212074327607665909e+05
6.303271714828539984e-02,7.201278026041773846e+05
6.352903775575220735e-02,7.191468649299705867e+05
6.402535836321900098e-02,7.182349827852145536e+05
6.452167897068590563e-02,7.173703614374644822e+05
6.501799957815269926e-02,7.165288367979979375e+05
6.551432018561949289e-02,7.156760534403412603e+05
6.601064079308630039e-02,7.147882448613734450e+05
6.650696140055309402e-02,7.138722580905267969e+05
6.700328200801990153e-02,7.129544906628933968e+05
6.749960261548679230e-02,7.120489607459281106e+05
6.799592322295361368e-02,7.111584433762719855e+05
6.849224383042040731e-02,7.102943828799716430e+05
6.898856443788720094e-02,7.094651266400738386e+05
6.948488504535400845e-02,7.086624281534118345e+05
6.998120565282080208e-02,7.078695076328498544e+05
7.047752626028760958e-02,7.070835971833385993e+05
7.097384686775450036e-02,7.063117428903912660e+05
7.147016747522130786e-02,7.055474205128875328e+05
7.196648808268810149e-02,7.047714009651445085e+05
7.246280869015490900e-02,7.039699147966780001e+05
7.295912929762170263e-02,7.031521582238028059e+05
7.345544990508849625e-02,7.023390686222735094e+05
7.395177051255530376e-02,7.015417710522863781e+05
7.444809112002219453e-02,7.007600885056706611e+05
7.494441172748900204e-02,6.999810454935453599e+05
7.544073233495579567e-02,6.991833739579718094e+05
7.593705294242260317e-02,6.983529590684723807e+05
7.643337354988939680e-02,6.975043728904472664e+05
7.692969415735619043e-02,6.966377334432019852e+05
7.742601476482299794e-02,6.957658272312430199e+05
7.792233537228988871e-02,6.948974426089451881e+05
7.841865597975659907e-02,6.940337558149752440e+05
7.891497658722350372e-02,6.931849232058965135e+05
7.941129719469031123e-02,6.923384234268679284e+05
7.990761780215710486e-02,6.914734938745197142e+05
8.040393840962391236e-02,6.905650315420184052e+05
8.090025901709070599e-02,6.896068180812433129e+05
8.139657962455761064e-02,6.886360280299542937e+05
8.189290023202440427e-02,6.877241311089249793e+05
8.238922083949119790e-02,6.868945983746777056e+05
8.288554144695800541e-02,6.860872435697360197e+05
8.338186205442479904e-02,6.853144829044102225e+05
8.387818266189160654e-02,6.845537330638079438e+05
8.437450326935840017e-02,6.837916610531851184e+05
8.487082387682519380e-02,6.830208744634295581e+05
8.536714448429200131e-02,6.822352717511119554e+05
8.586346509175889208e-02,6.814473837278354913e+05
8.635978569922569958e-02,6.806618564939969219e+05
8.685610630669249321e-02,6.798817782563451910e+05
8.735242691415930072e-02,6.791089388665388105e+05
8.784874752162609435e-02,6.783545788623292465e+05
8.834506812909290185e-02,6.776279094029153930e+05
8.884138873655979263e-02,6.769245395168639952e+05
8.933770934402661401e-02,6.762411909669601591e+05
8.983402995149340764e-02,6.755719834659587359e+05
9.033035055896020127e-02,6.749165810617952375e+05
9.082667116642700877e-02,6.742761955310333287e+05
9.132299177389380240e-02,6.736512389824559214e+05
9.181931238136060991e-02,6.730427350872185780e+05
9.231563298882740354e-02,6.724539457600343740e+05
9.281195359629430819e-02,6.718855142888491973e+05
9.330827420376110182e-02,6.713289157472229563e+05
9.380459481122790932e-02,6.707698381899632514e+05
9.430091541869470295e-02,6.701961959216931136e+05
9.479723602616149658e-02,6.696035363802360371e+05
9.529355663362830409e-02,6.690095023046660936e+05
9.578987724109509772e-02,6.684216327121349750e+05
9.628619784856190522e-02,6.678425873873588862e+05
9.678251845602879599e-02,6.672721161665585823e+05
9.727883906349560350e-02,6.666998412234438583e+05
9.777515967096239713e-02,6.661149657823926536e+05
9.827148027842919076e-02,6.655158521981905214e+05
9.876780088589599826e-02,6.649012494086927036e+05
9.926412149336279189e-02,6.642751258151074871e+05
9.976044210082971042e-02,6.636420649748722790e+05
1.002567627082959906e-01,6.630087986320715863e+05
1.007530833157630062e-01,6.623798329892255133e+05
1.012494039232300080e-01,6.617571104349496309e+05
1.017457245306970098e-01,6.611392623330975184e+05
1.022420451381639978e-01,6.605252670351699926e+05
1.027383657456309995e-01,6.599159548318681773e+05
1.032346863530970021e-01,6.593090391355400207e+05
1.037310069605640039e-01,6.586892715005803620e+05
1.042273275680310057e-01,6.580477784331606235e+05
1.047236481754980075e-01,6.573763487410461530e+05
1.052199687829649954e-01,6.566840327534478856e+05
1.057162893904309980e-01,6.559962522870191606e+05
1.062126099978979998e-01,6.553468475012549898e+05
1.067089306053650016e-01,6.547448683015500428e+05
1.072052512128320034e-01,6.541589562752267811e+05
1.077015718202989913e-01,6.536097559324869653e+05
1.081978924277649939e-01,6.530832616948110517e+05
1.086942130352319957e-01,6.525658857841923600e+05
1.091905336426989975e-01,6.520498532454154920e+05
1.096868542501659993e-01,6.515276732916828478e+05
1.101831748576330011e-01,6.509963835783177055e+05
1.106794954651000029e-01,6.504491178262614412e+05
1.111758160725659916e-01,6.498850517822944093e+05
1.116721366800330073e-01,6.493152449844396906e+05
1.121684572875000091e-01,6.487464956704268698e+05
1.126647778949670109e-01,6.481831343102233950e+05
1.131610985024339988e-01,6.476291841520742746e+05
1.136574191099000014e-01,6.470896491872646147e+05
1.141537397173670032e-01,6.465665844773960998e+05
1.146500603248340050e-01,6.460572204427229008e+05
1.151463809323010068e-01,6.455615063236544374e+05
1.156427015397679947e-01,6.450756736052248161e+05
1.161390221472339973e-01,6.445980209914627485e+05
1.166353427547009991e-01,6.441253023651781259e+05
1.171316633621680009e-01,6.436548524465358350e+05
1.176279839696350027e-01,6.431879776709730504e+05
1.181243045771019906e-01,6.427261619481339585e+05
1.186206251845689924e-01,6.422691574086945038e+05
1.191169457920349950e-01,6.418160690645253053e+05
1.196132663995019968e-01,6.413665685354628367e+05
1.201095870069689986e-01,6.409210300256693736e+05
1.206059076144360143e-01,6.404795424010696588e+05
1.211022282219030022e-01,6.400408774177029263e+05
1.215985488293689909e-01,6.396002152919954387e+05
1.220948694368360066e-01,6.391537544329765951e+05
1.225911900443030084e-01,6.386988478930488927e+05
1.230875106517700102e-01,6.382355675769808004e+05
1.235838312592369981e-01,6.377694455760389101e+05
1.240801518667039999e-01,6.373082167613202473e+05
1.245764724741700025e-01,6.368568835926994216e+05
1.250727930816370181e-01,6.364157952643567696e+05
1.255691136891040061e-01,6.359816431180720683e+05
1.260654342965709940e-01,6.355502588743473170e+05
1.265617549040380097e-01,6.351185598046532832e+05
1.270580755115039984e-01,6.346843656957990024e+05
1.275543961189710140e-01,6.342465276941615157e+05
1.280507167264380020e-01,6.338050924530304037e+05
1.285470373339049899e-01,6.333618300303507131e+05
1.290433579413720055e-01,6.329193138829946984e+05
1.295396785488389935e-01,6.324810071178730577e+05
1.300359991563050099e-01,6.320497119473807979e+05
1.305323197637719979e-01,6.316239346778003965e+05
1.310286403712389858e-01,6.312018263126562815e+05
1.315249609787060014e-01,6.307824362109220820e+05
1.320212815861729894e-01,6.303648513551476644e+05
1.325176021936399773e-01,6.299488536930162227e+05
1.330139228011069930e-01,6.295331513862877619e+05
1.335102434085729817e-01,6.291180224524646765e+05
1.340065640160399973e-01,6.287045779128132854e+05
1.345028846235069853e-01,6.282907924832059070e+05
1.349992052309740287e-01,6.278613126795653952e+05
1.354955258384410166e-01,6.274144068383462727e+05
1.359918464459080045e-01,6.269468423028062098e+05
1.364881670533740210e-01,6.264658422232320299e+05
1.369844876608410089e-01,6.259792709280822892e+05
1.374808082683080246e-01,6.255177373642604798e+05
1.379771288757750125e-01,6.250781506176765542e+05
1.384734494832420004e-01,6.246498340477409074e+05
1.389697700907090161e-01,6.242430279955565929e+05
1.394660906981750048e-01,6.238483469554748153e+05
1.399624113056420205e-01,6.234606063982414780e+05
1.404587319131090084e-01,6.230766385391401127e+05
1.409550525205759963e-01,6.226934653503062436e+05
1.414513731280430120e-01,6.223086762013611151e+05
1.419476937355099999e-01,6.219202572499179514e+05
1.424440143429770156e-01,6.215254800125601469e+05
1.429403349504430043e-01,6.211207921463003149e+05
1.434366555579099922e-01,6.207036493970663287e+05
1.439329761653770079e-01,6.202818205907697557e+05
1.444292967728439958e-01,6.198545042564402102e+05
1.449256173803110115e-01,6.194244591481836978e+05
1.454219379877779994e-01,6.189929313091568183e+05
1.459182585952439881e-01,6.185626211711333599e+05
1.464145792027110038e-01,6.181377903480192181e+05
1.469108998101779917e-01,6.177233377848881064e+05
1.474072204176450074e-01,6.173214367655951064e+05
1.479035410251119953e-01,6.169303230452602729e+05
1.483998616325789832e-01,6.165462053739506518e+05
1.488961822400449997e-01,6.161667579883225262e+05
1.493925028475119876e-01,6.157911564615073148e+05
1.498888234549790033e-01,6.154222882126882905e+05
1.503851440624459912e-01,6.150620502786163706e+05
1.508814646699129791e-01,6.147088324595978484e+05
1.513777852773800225e-01,6.143605068170508603e+05
1.518741058848470105e-01,6.140142203089045361e+05
1.523704264923129992e-01,6.136681281754934462e+05
1.528667470997800149e-01,6.133230684377927100e+05
1.533630677072470028e-01,6.129820742506153183e+05
1.538593883147140184e-01,6.126472340811514296e+05
1.543557089221810064e-01,6.123190598025694489e+05
1.548520295296480220e-01,6.119974642800082220e+05
1.553483501371140107e-01,6.116820169292278588e+05
1.558446707445809987e-01,6.113732190642897040e+05
1.563409913520480143e-01,6.110708515477249166e+05
1.568373119595150023e-01,6.107748161637466401e+05
1.573336325669820179e-01,6.104852112280450528e+05
1.578299531744490058e-01,6.102018096646671183e+05
1.583262737819150223e-01,6.099235923400528263e+05
1.588225943893820102e-01,6.096484824843722163e+05
1.593189149968489982e-01,6.093739026981738862e+05
1.598152356043160138e-01,6.090980032930667512e+05
1.603115562117830017e-01,6.088205080252764747e+05
1.608078768192499897e-01,6.085424533468041336e+05
1.613041974267160061e-01,6.082651652163757244e+05
1.618005180341829941e-01,6.079893831028055865e+05
1.622968386416500097e-01,6.077148359484120738e+05
1.627931592491169976e-01,6.074403581605625805e+05
1.632894798565839856e-01,6.071644559489705134e+05
1.637858004640510012e-01,6.068857334337608190e+05
1.642821210715179892e-01,6.066034176983415382e+05
1.647784416789840056e-01,6.063163249310988467e+05
1.652747622864509935e-01,6.060255550093738129e+05
1.657710828939180092e-01,6.057292524731694721e+05
1.662674035013849971e-01,6.054267238169397460e+05
1.667637241088519851e-01,6.051190067987346556e+05
1.672600447163190007e-01,6.048071661988929845e+05
1.677563653237849894e-01,6.044926325522775296e+05
1.682526859312520051e-01,6.041759263975506183e+05
1.687490065387189930e-01,6.038574074425484287e+05
1.692453271461860087e-01,6.035370388825411210e+05
1.697416477536530244e-01,6.032145354392598383e+05
1.702379683611200123e-01,6.028895516442934750e+05
1.707342889685860010e-01,6.025617799496892840e+05
1.712306095760530167e-01,6.022309836157228565e+05
1.717269301835200046e-01,6.018970957773943665e+05
1.722232507909870203e-01,6.015602441824307898e+05
1.727195713984540082e-01,6.012204948937562294e+05
1.732158920059209961e-01,6.008781728245498380e+05
1.737122126133880118e-01,6.005343550189512316e+05
1.742085332208540005e-01,6.001895555572470184e+05
1.747048538283210162e-01,5.998402537464965135e+05
1.752011744357880041e-01,5.994821016216843855e+05
1.756974950432550198e-01,5.991085174239991466e+05
1.761938156507220077e-01,5.987185676914046053e+05
1.766901362581889956e-01,5.983152337503484450e+05
1.771864568656550121e-01,5.979069507975640008e+05
1.776827774731220000e-01,5.975039092777458718e+05
1.781790980805890157e-01,5.971135604180421215e+05
1.786754186880560036e-01,5.967408208958948962e+05
1.791717392955229915e-01,5.963845081822321517e+05
1.796680599029900072e-01,5.960512942457341123e+05
1.801643805104569951e-01,5.957330657409913838e+05
1.806607011179230116e-01,5.954216412127984222e+05
1.811570217253899995e-01,5.951235081603700528e+05
1.816533423328569874e-01,5.948353020775254117e+05
1.821496629403240031e-01,5.945536442314774031e+05
1.826459835477909910e-01,5.942769058590476634e+05
1.831423041552579789e-01,5.940047788314273348e+05
1.836386247627239954e-01,5.937373973831823096e+05
1.841349453701909833e-01,5.934740832965816371e+05
1.846312659776579990e-01,5.932127594141337322e+05
1.851275865851249869e-01,5.929504328074194491e+05
1.856239071925920026e-01,5.926844636873984709e+05
1.861202278000590182e-01,5.924135917910136050e+05
1.866165484075249792e-01,5.921376292916082311e+05
1.871128690149919949e-01,5.918565945784638170e+05
1.876091896224590105e-01,5.915711037738933228e+05
1.881055102299260262e-01,5.912820665806008037e+05
1.886018308373930141e-01,5.909933025469611166e+05
1.890981514448600020e-01,5.907072298547547543e+05
1.895944720523260185e-01,5.904259762313405517e+05
1.900907926597930064e-01,5.901506959409586852e+05
1.905871132672600221e-01,5.898806284325928427e+05
1.910834338747270100e-01,5.896150283211229835e+05
1.915797544821939979e-01,5.893517816178188659e+05
1.920760750896610136e-01,5.890890878559665289e+05
1.925723956971280015e-01,5.888268030666714767e+05
1.930687163045940180e-01,5.885648306662242394e+05
1.935650369120610059e-01,5.883037035092134029e+05
1.940613575195279938e-01,5.880434523787795333e+05
1.945576781269950095e-01,5.877853707322402624e+05
1.950539987344619974e-01,5.875310824885040056e+05
1.955503193419290131e-01,5.872806376119318884e+05
1.960466399493950018e-01,5.870327901703956304e+05
1.965429605568619897e-01,5.867859838347613113e+05
1.970392811643290054e-01,5.865390623612937052e+05
1.975356017717959933e-01,5.862912486246163025e+05
