Region: Body 1.Ramp1: Position[X] (m),Region: Body 1.Ramp1: Absolute Pressure (Pa)
1.434694952,2134.682294
1.435191229,2134.9383
1.435687506,2135.211034
1.436183784,2135.504659
1.436680061,2135.810643
1.437176338,2136.130135
1.437672615,2136.455134
1.438168893,2136.781205
1.43866517,2137.101981
1.439161447,2137.410781
1.439657724,2137.700715
1.440154002,2137.964536
1.440650279,2138.194914
1.441141824,2138.384671
1.441638102,2138.532338
1.442139111,2138.635948
1.442635388,2138.696004
1.443131665,2138.712156
1.443627942,2138.695022
1.44412422,2138.634348
1.444620497,2138.54914
1.445114351,2138.432715
1.445610629,2138.287648
1.446109329,2138.115716
1.446605606,2137.922166
1.447101883,2137.708927
1.44759816,2137.47861
1.448094438,2137.233239
1.448590715,2136.975073
1.449090022,2136.703017
1.453062308,2134.260198
1.453558584,2133.932861
1.449586298,2136.422634
1.452560933,2134.588238
1.454049765,2133.605582
1.457032474,2131.574882
1.45752875,2131.241219
1.450079547,2136.135209
1.452064656,2134.908028
1.454546042,2133.272241
1.456531151,2131.917629
1.458019983,2130.919109
1.455042319,2132.93627
1.450575824,2135.838067
1.451568378,2135.223656
1.456034874,2132.257756
1.45851626,2130.607008
1.455538597,2132.597863
1.451072101,2135.533945
1.459012537,2130.313447
1.460005092,2129.803379
1.459508815,2130.043661
1.460501369,2129.593624
1.460997646,2129.420038
1.461493924,2129.279325
1.461990201,2129.176939
1.462486478,2129.107399
1.462982755,2129.072124
1.463479033,2129.070827
1.46397531,2129.098236
1.464467471,2129.162622
1.464963749,2129.256101
1.465464142,2129.39437
1.465960419,2129.557266
1.466456696,2129.756004
1.466952973,2129.974945
1.467449251,2130.223337
1.467945528,2130.486452
1.468435867,2130.764763
1.468932146,2131.052362
1.46943436,2131.349746
1.469930637,2131.641904
1.470426914,2131.929234
1.470923191,2132.208208
1.471419469,2132.47628
1.471915746,2132.730783
1.472411538,2132.970828
1.472907816,2133.194983
1.473404578,2133.403072
1.473900855,2133.593563
1.474397132,2133.764105
1.474893409,2133.913798
1.475389687,2134.041508
1.475885964,2134.146428
1.476387209,2134.224496
1.476883485,2134.271689
1.477374796,2134.286059
1.477871073,2134.268982
1.47836735,2134.20831
1.478863627,2134.105945
1.479359905,2133.953766
1.479856182,2133.765223
1.480358726,2133.537198
1.480855002,2133.288778
1.481345014,2133.027541
1.481841291,2132.753647
1.482337568,2132.476914
1.482833845,2132.202648
1.483330123,2131.936134
1.4838264,2131.682267
1.484322677,2131.44543
1.484818954,2131.229289
1.485315232,2131.036656
1.485811509,2130.869235
1.486307786,2130.727448
1.486804063,2130.608739
1.487300341,2130.512874
1.487796618,2130.433102
1.488292895,2130.371427
1.488789172,2130.321511
1.48928545,2130.285656
1.489781727,2130.258797
1.490278004,2130.242314
1.490774281,2130.234232
1.491270559,2130.23775
1.491761154,2130.251539
1.492257432,2130.283947
1.49275939,2130.335876
1.493255668,2130.410726
1.493751945,2130.506279
1.494248222,2130.620549
1.494744499,2130.755544
1.495240777,2130.905424
1.495733055,2131.073271
1.496229333,2131.251382
1.496729608,2131.445791
1.497225886,2131.643294
1.497722163,2131.847884
1.49821844,2132.051362
1.498714717,2132.253092
1.499210995,2132.445802
1.499708726,2132.624774
1.500205003,2132.783972
1.500699826,2132.917236
1.501196104,2133.020827
1.501692381,2133.087425
1.502188658,2133.11592
1.502684935,2133.109828
1.503181213,2133.058584
1.503681638,2132.961963
1.504177915,2132.815882
1.504670044,2132.630837
1.505166322,2132.400046
1.505662599,2132.129912
1.506158876,2131.822224
1.506655153,2131.479462
1.507151431,2131.105675
1.507652177,2130.70039
1.508148454,2130.277652
1.508640262,2129.842861
1.50913654,2129.393125
1.509632817,2128.939449
1.510129094,2128.487582
1.510625371,2128.043456
1.511121649,2127.612127
1.511617926,2127.198373
1.512114203,2126.806771
1.51261048,2126.441067
1.513106758,2126.105529
1.513603035,2125.802476
1.514099312,2125.538383
1.514593,2125.313202
1.515083765,2125.133248
1.515582632,2124.991871
1.516084421,2124.895347
1.516580698,2124.839284
1.517076976,2124.820331
1.517573253,2124.843814
1.51806953,2124.893582
1.518565807,2124.981598
1.519057571,2125.093355
1.51955385,2125.245164
1.520054639,2125.426933
1.520550916,2125.633483
1.521047194,2125.867072
1.521543471,2126.121864
1.522039748,2126.402441
1.522536025,2126.699792
1.523030243,2127.015943
1.52352652,2127.345316
1.524024857,2127.685246
1.524521134,2128.027812
1.525017412,2128.370329
1.525513689,2128.709608
1.526009966,2129.043567
1.526506243,2129.372739
1.527005914,2129.699619
1.52750219,2130.021754
1.527995075,2130.339315
1.528491352,2130.658579
1.52898763,2130.975286
1.529483907,2131.290252
1.529980184,2131.599838
1.530476461,2131.903109
1.530978055,2132.198788
1.531474331,2132.476141
1.531965293,2132.731399
1.53246157,2132.964645
1.532957848,2133.168289
1.533454125,2133.339801
1.533950402,2133.478631
1.534446679,2133.583882
1.534942957,2133.657888
1.535439234,2133.700937
1.535935511,2133.718888
1.634198407,2132.766945
1.63370213,2132.883501
1.633205853,2132.982813
1.632715269,2133.064931
1.632218993,2133.13507
1.631717021,2133.194138
1.631220744,2133.244659
1.630724466,2133.289264
1.630228189,2133.330308
1.629731912,2133.370236
1.621295199,2134.524873
1.621791476,2134.468069
1.615836149,2133.666533
1.615339872,2133.379797
1.625761694,2133.820601
1.626257971,2133.744942
1.629235635,2133.410839
1.62079507,2134.570471
1.622287753,2134.401123
1.616332426,2133.913182
1.614843594,2133.05345
1.625265417,2133.901231
1.626754248,2133.675065
1.6287396,2133.454211
1.620298792,2134.601609
1.62278403,2134.326012
1.616828703,2134.121142
1.614347317,2132.689351
1.627250526,2133.611349
1.62476393,2133.986661
1.628243322,2133.501524
1.619806367,2134.613878
1.623280308,2134.244729
1.617324981,2134.289329
1.61385104,2132.287745
1.627746803,2133.553682
1.624267652,2134.073271
1.623776585,2134.159281
1.61931009,2134.606222
1.617821258,2134.420242
1.613354763,2131.851022
1.618813812,2134.57433
1.618317535,2134.513787
1.612858485,2131.380175
1.612362208,2130.879495
1.611865931,2130.353165
1.611369654,2129.805909
1.610873376,2129.242618
1.610377099,2128.668282
1.609880822,2128.087453
1.609390079,2127.512511
1.608893803,2126.936836
1.60839199,2126.366475
1.607895713,2125.82307
1.607399436,2125.312086
1.606903158,2124.834022
1.606406881,2124.411263
1.605910604,2124.029698
1.605418082,2123.727355
1.604921806,2123.482464
1.604421772,2123.310585
1.603925495,2123.202326
1.603429218,2123.130629
1.60293294,2123.123521
1.602436663,2123.173629
1.601940386,2123.282215
1.601442412,2123.449254
1.600946135,2123.668897
1.600451554,2123.938464
1.599955277,2124.249626
1.599458999,2124.59747
1.598962722,2124.974169
1.598466445,2125.374755
1.597970168,2125.794106
1.597469597,2126.232062
1.596973319,2126.678331
1.596481336,2127.129857
1.595985059,2127.595501
1.595488781,2128.070119
1.594992504,2128.55384
1.594496227,2129.045806
1.59399995,2129.543968
1.593498316,2130.051892
1.592999521,2130.558253
1.592508601,2131.053236
1.592014841,2131.544876
1.591518563,2132.026926
1.591022286,2132.490009
1.590526009,2132.927349
1.590029732,2133.331002
1.589533454,2133.695979
1.589037177,2134.010804
1.5885409,2134.286443
1.588044623,2134.481966
1.587548345,2134.622342
1.587052068,2134.677869
1.586555791,2134.665594
1.586064115,2134.573465
1.585567839,2134.403154
1.585066959,2134.148529
1.584570682,2133.816114
1.584074405,2133.407096
1.583578127,2132.925032
1.58308185,2132.379723
1.582585573,2131.771636
1.582093662,2131.115596
1.581597386,2130.406579
1.581096741,2129.65012
1.580600464,2128.869847
1.580104187,2128.068735
1.579607909,2127.258486
1.579111632,2126.451182
1.578615355,2125.657366
1.578120895,2124.889091
1.577624618,2124.149401
1.577126523,2123.45178
1.576630246,2122.800004
1.576133969,2122.204571
1.575637691,2121.659306
1.575141414,2121.174414
1.574645137,2120.746962
1.574145225,2120.370553
1.573648947,2120.0608
1.573156305,2119.805308
1.572660028,2119.60506
1.572163751,2119.452386
1.571667473,2119.345876
1.571171196,2119.278957
1.570674919,2119.231788
1.57017318,2119.216741
1.569676902,2119.224282
1.569186087,2119.260183
1.56868981,2119.322013
1.568193533,2119.413197
1.567697255,2119.531127
1.567200978,2119.683054
1.566704701,2119.863653
1.566208424,2120.077869
1.565712146,2120.318712
1.565215869,2120.587426
1.564719592,2120.87916
1.564223315,2121.192109
1.563727037,2121.522236
1.56323076,2121.866545
1.562734483,2122.221985
1.562238206,2122.586102
1.561741928,2122.956957
1.561245651,2123.333078
1.560749374,2123.713381
1.560253097,2124.097039
1.559756819,2124.483178
1.559260542,2124.871292
1.55876816,2125.257472
1.558271883,2125.647358
1.55777171,2126.040877
1.557275433,2126.429524
1.556779156,2126.816289
1.556282879,2127.199774
1.555786601,2127.578789
1.555290324,2127.952805
1.554799377,2128.316784
1.554303101,2128.678111
1.553801492,2129.036235
1.553305215,2129.380692
1.552808938,2129.715485
1.552312661,2130.038312
1.551816383,2130.347054
1.551320106,2130.639353
1.550823708,2130.91319
1.55032743,2131.167083
1.549831274,2131.400595
1.549334997,2131.613585
1.54883872,2131.80659
1.548342443,2131.980777
1.547846165,2132.1385
1.547349888,2132.282002
1.546848038,2132.414855
1.54635176,2132.535847
1.545861056,2132.645948
1.545364779,2132.748905
1.544868502,2132.842893
1.544372225,2132.928191
1.543875947,2133.004779
1.54337967,2133.072958
1.54287941,2133.133903
1.542383132,2133.18759
1.541890838,2133.235932
1.541394561,2133.281872
1.540898284,2133.326621
1.540402007,2133.371613
1.539905729,2133.417773
1.539409452,2133.465558
1.538913175,2133.514748
1.538416897,2133.564371
1.53792062,2133.612384
1.537424343,2133.656014
1.536928066,2133.691537
1.536431788,2133.715002
1.729480731,2130.305963
1.728987362,2129.913072
1.728491085,2129.542245
1.727994808,2129.201176
1.727498531,2128.899838
1.727002253,2128.643311
1.726505976,2128.445179
1.726004676,2128.302481
1.725508397,2128.206248
1.725017144,2128.171086
1.724520867,2128.184412
1.72402459,2128.255773
1.723528313,2128.383357
1.723032035,2128.562081
1.722535758,2128.790413
1.722039481,2129.057562
1.721543204,2129.357175
1.721046926,2129.681404
1.720550649,2130.024914
1.71856554,2131.496849
1.720054372,2130.382702
1.719061817,2131.123263
1.718069263,2131.866383
1.719558095,2130.750352
1.717572986,2132.22691
1.717076708,2132.573258
1.716084154,2133.201498
1.715587877,2133.471444
1.712610213,2134.363605
1.712113936,2134.391244
1.716580431,2132.899792
1.715091599,2133.713301
1.71310649,2134.300601
1.711617659,2134.392328
1.714599482,2133.911806
1.709136272,2134.008392
1.70963255,2134.137346
1.713602768,2134.210922
1.711121381,2134.368456
1.714103205,2134.080623
1.708639995,2133.851602
1.710134885,2134.241333
1.710631162,2134.317637
1.707151163,2133.210701
1.70764744,2133.454175
1.708143718,2133.668619
1.706655492,2132.932569
1.706159215,2132.620189
1.705662331,2132.27342
1.705166054,2131.891457
1.704669777,2131.479109
1.7041735,2131.034659
1.703677222,2130.564449
1.703180945,2130.068783
1.702679822,2129.546526
1.702183544,2129.00724
1.701692113,2128.454317
1.701195836,2127.875618
1.700699559,2127.279204
1.700203282,2126.6674
1.699707004,2126.043396
1.699210727,2125.411727
1.698708257,2124.769123
1.698211979,2124.13522
1.697721895,2123.515325
1.697225618,2122.895997
1.696729341,2122.287187
1.696233064,2121.692119
1.695736786,2121.111611
1.695240509,2120.548789
1.694744232,2120.004026
1.694247955,2119.480822
1.693751677,2118.978156
1.6932554,2118.499187
1.692759123,2118.041743
1.692262846,2117.609802
1.691766568,2117.199631
1.691270291,2116.81486
1.690774014,2116.450902
1.690277737,2116.113197
1.689781459,2115.794591
1.689285182,2115.501715
1.688788905,2115.226949
1.688292628,2114.974057
1.68779635,2114.737049
1.687305827,2114.51841
1.686809551,2114.30781
1.686307519,2114.108159
1.685811241,2113.920378
1.685314964,2113.749641
1.684818687,2113.587925
1.68432241,2113.458006
1.683826132,2113.346517
1.683333974,2113.270987
1.682837698,2113.212406
1.682337301,2113.196375
1.681841023,2113.210745
1.681344746,2113.264701
1.680848469,2113.355386
1.680352192,2113.482796
1.679855914,2113.649838
1.679358304,2113.853672
1.678862027,2114.097518
1.678367083,2114.373803
1.677870805,2114.685482
1.677374528,2115.025078
1.676878251,2115.389583
1.676381974,2115.773898
1.675885696,2116.172981
1.675385344,2116.58515
1.674889066,2116.999724
1.674396865,2117.411296
1.673900587,2117.82524
1.67340431,2118.234676
1.672908033,2118.638394
1.672411756,2119.035395
1.671915478,2119.424626
1.671414777,2119.808791
1.670918499,2120.181096
1.670426647,2120.541119
1.669930369,2120.897308
1.669434092,2121.247319
1.668937815,2121.593045
1.668441538,2121.937238
1.66794526,2122.282025
1.667448983,2122.629893
1.666952706,2122.982712
1.666456429,2123.342211
1.665960151,2123.709293
1.665463874,2124.08513
1.664967597,2124.470211
1.66447132,2124.865458
1.663980606,2125.26667
1.663486944,2125.681186
1.662985102,2126.11504
1.662486211,2126.557621
1.661989933,2127.009568
1.661493656,2127.473487
1.660997379,2127.948855
1.660501102,2128.435303
1.660009409,2128.927152
1.659513133,2129.432002
1.65901227,2129.949435
1.658515993,2130.464987
1.658019715,2130.980761
1.657523438,2131.491947
1.657027161,2131.993838
1.656530883,2132.4819
1.656036787,2132.948637
1.65554051,2133.393802
1.655042052,2133.812952
1.654545774,2134.197149
1.654049497,2134.544497
1.65355322,2134.85137
1.653056943,2135.116956
1.652560665,2135.338765
1.652061117,2135.518235
1.651564839,2135.648754
1.651071834,2135.739274
1.650575556,2135.780871
1.650079279,2135.781706
1.649583002,2135.738876
1.649086725,2135.651264
1.648590447,2135.516331
1.648088928,2135.33395
1.64759265,2135.111175
1.647101616,2134.856003
1.646605338,2134.567659
1.646109061,2134.25508
1.645612784,2133.925348
1.645116507,2133.586005
1.644620229,2133.24511
1.644123952,2132.910129
1.643627675,2132.587958
1.643131398,2132.28275
1.64263512,2132.007694
1.642138843,2131.756604
1.641642566,2131.554019
1.641146289,2131.391766
1.640650011,2131.282852
1.640153734,2131.21918
1.639657457,2131.202377
1.63916118,2131.231491
1.638664902,2131.304882
1.638168625,2131.419906
1.637672348,2131.568828
1.637176071,2131.743084
1.636683821,2131.929719
1.636187544,2132.121478
1.635687239,2132.308423
1.635190962,2132.479015
1.634694684,2132.632107
1.802932673,2131.172978
1.802436396,2131.464289
1.803424145,2130.893865
1.801940119,2131.762154
1.803920423,2130.621523
1.801443841,2132.064677
1.804421505,2130.358676
1.800947564,2132.369387
1.806406614,2129.449644
1.804917782,2130.110937
1.800451287,2132.673365
1.805910337,2129.655637
1.805414059,2129.87644
1.79995501,2132.97341
1.799458732,2133.266112
1.798962455,2133.548158
1.798466178,2133.816521
1.7979699,2134.068487
1.797473623,2134.300598
1.796977346,2134.509129
1.796481069,2134.691428
1.795984791,2134.844887
1.795488514,2134.971052
1.794992237,2135.064147
1.79449596,2135.128548
1.793999682,2135.160202
1.793503405,2135.169673
1.793007128,2135.158211
1.792515143,2135.131406
1.792018866,2135.090734
1.791518296,2135.043055
1.791022019,2134.98832
1.790525742,2134.93252
1.790029464,2134.873589
1.789533187,2134.813647
1.78903691,2134.750405
1.788544489,2134.685678
1.788048212,2134.616665
1.787548078,2134.546162
1.787051801,2134.473488
1.786555524,2134.40599
1.786059246,2134.338446
1.785562969,2134.285487
1.785066692,2134.24107
1.784571384,2134.215944
1.784075107,2134.204244
1.78357786,2134.210228
1.783081583,2134.232165
1.782585306,2134.271079
1.782089028,2134.32815
1.781592751,2134.402258
1.781096474,2134.495922
1.780595714,2134.607488
1.780099436,2134.737957
1.779607642,2134.883002
1.779111365,2135.045837
1.778615088,2135.2231
1.77811881,2135.413893
1.777622533,2135.616447
1.777126256,2135.828934
1.776624005,2136.052479
1.776127727,2136.280766
1.775637424,2136.511652
1.775141147,2136.751518
1.77464487,2136.995923
1.774148592,2137.24439
1.773652315,2137.495904
1.773156038,2137.749179
1.772659761,2138.002539
1.772163483,2138.254215
1.771667206,2138.502616
1.771170929,2138.746616
1.770674652,2138.985487
1.770178374,2139.21884
1.769682097,2139.446579
1.76918582,2139.668635
1.768689543,2139.884764
1.768193265,2140.09396
1.767696988,2140.294645
1.767200711,2140.484575
1.766704434,2140.661051
1.766208156,2140.820852
1.765711879,2140.961166
1.765221575,2141.073807
1.764725299,2141.163371
1.764223047,2141.217259
1.76372677,2141.240887
1.763230493,2141.231311
1.762734216,2141.192752
1.762237938,2141.123576
1.761741661,2141.025762
1.761249866,2140.902917
1.76075359,2140.755488
1.760252829,2140.584385
1.759756552,2140.394454
1.759260275,2140.186162
1.758763998,2139.962373
1.75826772,2139.727778
1.757771443,2139.48947
1.757274197,2139.257045
1.756777919,2139.038437
1.756282611,2138.849329
1.755786334,2138.691659
1.755290057,2138.562538
1.754793779,2138.48202
1.754297502,2138.437513
1.753801225,2138.447388
1.753301092,2138.506657
1.752804814,2138.615834
1.752312393,2138.774329
1.751816116,2138.981212
1.751319839,2139.233428
1.750823561,2139.524682
1.750327284,2139.848701
1.749831007,2140.197596
1.749330438,2140.567922
1.74883416,2140.944202
1.748342175,2141.316524
1.747845898,2141.682807
1.747349621,2142.029365
1.746853343,2142.347946
1.746357066,2142.631195
1.745860789,2142.874061
1.745364512,2143.070941
1.744868234,2143.231651
1.744371957,2143.328216
1.74387568,2143.386231
1.743379403,2143.379758
1.742883125,2143.315765
1.742386848,2143.193534
1.741895438,2143.008641
1.741399162,2142.762185
1.740898016,2142.453246
1.740401739,2142.08951
1.739905462,2141.676379
1.739409185,2141.216322
1.738912907,2140.718762
1.73841663,2140.188167
1.737925157,2139.636457
1.737428881,2139.058289
1.736927798,2138.456039
1.736431521,2137.848436
1.735935244,2137.234795
1.735438967,2136.620714
1.734942689,2136.011304
1.734446412,2135.410086
1.733952679,2134.822644
1.733456402,2134.244928
1.73295758,2133.679585
1.732461303,2133.134826
1.731965026,2132.610779
1.731468749,2132.106822
1.730972471,2131.625098
1.730476194,2131.164378
1.729977009,2130.723636
1.906654619,2134.580175
1.907150896,2134.820633
1.907647173,2135.044846
1.908143451,2135.256268
1.908634033,2135.45037
1.909130311,2135.636597
1.909632282,2135.809831
1.91012856,2135.97089
1.915587609,2136.56051
1.916083887,2136.479085
1.920554234,2135.121624
1.920054105,2135.317271
1.910624837,2136.119149
1.915091332,2136.615242
1.916585374,2136.380499
1.92105051,2134.912974
1.919557828,2135.49937
1.911121114,2136.252219
1.914595055,2136.651871
1.917081651,2136.260441
1.921542937,2134.687552
1.91906155,2135.671497
1.911617391,2136.370303
1.912113669,2136.470263
1.914098778,2136.661507
1.917572718,2136.131811
1.922039214,2134.437415
1.918565273,2135.834486
1.912609704,2136.55155
1.9136025,2136.648115
1.918068996,2135.988134
1.922535491,2134.158167
1.913105981,2136.61093
1.923031768,2133.843555
1.923528046,2133.493979
1.924024323,2133.106237
1.9245206,2132.677979
1.925016877,2132.223767
1.925513155,2131.746912
1.926009432,2131.25944
1.926505709,2130.770684
1.927001986,2130.28965
1.927498264,2129.823581
1.927994541,2129.377753
1.928490818,2128.955849
1.928987095,2128.559934
1.929483373,2128.189866
1.92997965,2127.843374
1.930475927,2127.516839
1.930972204,2127.206171
1.931468482,2126.907923
1.931959223,2126.616753
1.932455501,2126.324123
