Region: Body 1.Ramp1: Position[X] (m),Region: Body 1.Ramp1: Wall Y+
1.434694952,0.116149615
1.435191229,0.116154969
1.435687506,0.116161615
1.436183784,0.116169431
1.436680061,0.116178476
1.437176338,0.11618861
1.437672615,0.11619986
1.438168893,0.11621203
1.43866517,0.116224924
1.439161447,0.116238308
1.439657724,0.116251946
1.440154002,0.116265528
1.440650279,0.116278667
1.441141824,0.116290746
1.441638102,0.116301831
1.442139111,0.116311088
1.442635388,0.116318341
1.443131665,0.116323384
1.443627942,0.116326373
1.44412422,0.116327343
1.444620497,0.116326033
1.445114351,0.116323181
1.445610629,0.116318452
1.446109329,0.116312104
1.446605606,0.116304136
1.447101883,0.116294716
1.44759816,0.116284009
1.448094438,0.116272179
1.448590715,0.116259353
1.449090022,0.116245443
1.453062308,0.116112343
1.453558584,0.116094009
1.449586298,0.116231016
1.452560933,0.116130957
1.454049765,0.116075153
1.457032474,0.115956891
1.45752875,0.115936661
1.450079547,0.116215719
1.452064656,0.11614882
1.454546042,0.116056095
1.456531151,0.115977533
1.458019983,0.11591603
1.455042319,0.116036785
1.450575824,0.116199825
1.451568378,0.116166311
1.456034874,0.115997501
1.45851626,0.115895306
1.455538597,0.116017257
1.451072101,0.116183328
1.459012537,0.115874672
1.460005092,0.115834745
1.459508815,0.115854371
1.460501369,0.115815953
1.460997646,0.115798375
1.461493924,0.115782133
1.461990201,0.115767426
1.462486478,0.115754459
1.462982755,0.11574323
1.463479033,0.115733944
1.46397531,0.115725922
1.464467471,0.115719425
1.464963749,0.115714568
1.465464142,0.115711218
1.465960419,0.115710044
1.466456696,0.115710639
1.466952973,0.115713098
1.467449251,0.115717138
1.467945528,0.115722889
1.468435867,0.11572979
1.468932146,0.115738594
1.46943436,0.11574807
1.469930637,0.115758558
1.470426914,0.115769535
1.470923191,0.115780788
1.471419469,0.115792108
1.471915746,0.115803272
1.472411538,0.115814098
1.472907816,0.115824528
1.473404578,0.115834413
1.473900855,0.115843756
1.474397132,0.115852466
1.474893409,0.115860424
1.475389687,0.115867567
1.475885964,0.115873934
1.476387209,0.115879581
1.476883485,0.115884108
1.477374796,0.115887408
1.477871073,0.115889624
1.47836735,0.115890714
1.478863627,0.115890143
1.479359905,0.115887589
1.479856182,0.115882525
1.480358726,0.115874767
1.480855002,0.115865093
1.481345014,0.115853174
1.481841291,0.115839744
1.482337568,0.115825017
1.482833845,0.115809423
1.483330123,0.115793253
1.4838264,0.115776799
1.484322677,0.115760333
1.484818954,0.115744112
1.485315232,0.115728426
1.485811509,0.115713504
1.486307786,0.11569961
1.486804063,0.11568685
1.487300341,0.115675362
1.487796618,0.115665052
1.488292895,0.115655842
1.488789172,0.11564762
1.48928545,0.115640302
1.489781727,0.115633744
1.490278004,0.115627823
1.490774281,0.115622444
1.491270559,0.115617568
1.491761154,0.115612994
1.492257432,0.115608708
1.49275939,0.115604884
1.493255668,0.11560193
1.493751945,0.115600087
1.494248222,0.115599275
1.494744499,0.11559952
1.495240777,0.115600821
1.495733055,0.115603022
1.496229333,0.11560648
1.496729608,0.115610655
1.497225886,0.115615821
1.497722163,0.115621687
1.49821844,0.115628245
1.498714717,0.115635337
1.499210995,0.115642863
1.499708726,0.115650643
1.500205003,0.115658325
1.500699826,0.115665807
1.501196104,0.115672766
1.501692381,0.11567882
1.502188658,0.115683473
1.502684935,0.115686698
1.503181213,0.11568871
1.503681638,0.115688839
1.504177915,0.115687114
1.504670044,0.115682907
1.505166322,0.115676622
1.505662599,0.11566804
1.506158876,0.115657304
1.506655153,0.115644425
1.507151431,0.115629505
1.507652177,0.115612225
1.508148454,0.115593713
1.508640262,0.115573246
1.50913654,0.115551385
1.509632817,0.115528212
1.510129094,0.115504056
1.510625371,0.115479238
1.511121649,0.115454065
1.511617926,0.115428806
1.512114203,0.115403739
1.51261048,0.115379112
1.513106758,0.115355209
1.513603035,0.115332155
1.514099312,0.115310274
1.514593,0.115289829
1.515083765,0.115270977
1.515582632,0.115253513
1.516084421,0.115238148
1.516580698,0.115225152
1.517076976,0.115214161
1.517573253,0.115205283
1.51806953,0.115198393
1.518565807,0.115193229
1.519057571,0.115189774
1.51955385,0.115187903
1.520054639,0.115187946
1.520550916,0.115189808
1.521047194,0.115193282
1.521543471,0.115198206
1.522039748,0.115204515
1.522536025,0.115212274
1.523030243,0.1152212
1.52352652,0.115231729
1.524024857,0.115243271
1.524521134,0.115255852
1.525017412,0.11526916
1.525513689,0.115282942
1.526009966,0.115296888
1.526506243,0.115310804
1.527005914,0.115324798
1.52750219,0.115338271
1.527995075,0.115351789
1.528491352,0.115365223
1.52898763,0.115378668
1.529483907,0.115392166
1.529980184,0.115405725
1.530476461,0.115419302
1.530978055,0.115433252
1.531474331,0.11544662
1.531965293,0.115460021
1.53246157,0.115472994
1.532957848,0.115485297
1.533454125,0.115496569
1.533950402,0.115506582
1.534446679,0.115515123
1.534942957,0.115522112
1.535439234,0.115527391
1.535935511,0.115530953
1.634198407,0.115013442
1.63370213,0.11501893
1.633205853,0.115023861
1.632715269,0.115028413
1.632218993,0.115032665
1.631717021,0.115036948
1.631220744,0.115041148
1.630724466,0.115045406
1.630228189,0.115049843
1.629731912,0.115054486
1.621295199,0.115142994
1.621791476,0.115141062
1.615836149,0.115059426
1.615339872,0.115040739
1.625761694,0.115100917
1.626257971,0.115094478
1.629235635,0.115059411
1.62079507,0.115143827
1.622287753,0.115138204
1.616332426,0.115076388
1.614843594,0.115020464
1.625265417,0.115107327
1.626754248,0.115088105
1.6287396,0.11506462
1.620298792,0.115143391
1.62278403,0.115134526
1.616828703,0.115091564
1.614347317,0.114998675
1.627250526,0.115081871
1.62476393,0.11511358
1.628243322,0.115070098
1.619806367,0.115141506
1.623280308,0.115130122
1.617324981,0.115104847
1.61385104,0.114975558
1.627746803,0.115075864
1.624267652,0.115119619
1.623776585,0.115125077
1.61931009,0.11513808
1.617821258,0.11511619
1.613354763,0.114951297
1.618813812,0.115132795
1.618317535,0.115125535
1.612858485,0.114926171
1.612362208,0.114900478
1.611865931,0.114874514
1.611369654,0.114848545
1.610873376,0.11482284
1.610377099,0.11479766
1.609880822,0.114773393
1.609390079,0.114750169
1.608893803,0.114729119
1.60839199,0.114709096
1.607895713,0.114692227
1.607399436,0.114678003
1.606903158,0.114667143
1.606406881,0.114659427
1.605910604,0.114655734
1.605418082,0.114655366
1.604921806,0.114658376
1.604421772,0.114663783
1.603925495,0.114670705
1.603429218,0.114680614
1.60293294,0.114693111
1.602436663,0.11470846
1.601940386,0.114726384
1.601442412,0.114746385
1.600946135,0.114768082
1.600451554,0.114790824
1.599955277,0.114814636
1.599458999,0.114839228
1.598962722,0.114864292
1.598466445,0.114889702
1.597970168,0.114915385
1.597469597,0.114941262
1.596973319,0.114967603
1.596481336,0.114993443
1.595985059,0.115019994
1.595488781,0.115046677
1.594992504,0.115073443
1.594496227,0.115100081
1.59399995,0.115126457
1.593498316,0.115152279
1.592999521,0.115177662
1.592508601,0.11520123
1.592014841,0.115223534
1.591518563,0.115244264
1.591022286,0.115262796
1.590526009,0.1152788
1.590029732,0.115292017
1.589533454,0.11530205
1.589037177,0.115308964
1.5885409,0.115311441
1.588044623,0.115310162
1.587548345,0.115304887
1.587052068,0.11529575
1.586555791,0.115283277
1.586064115,0.115266529
1.585567839,0.115246046
1.585066959,0.115221606
1.584570682,0.115194318
1.584074405,0.115164282
1.583578127,0.115131976
1.58308185,0.115097679
1.582585573,0.115061744
1.582093662,0.115024595
1.581597386,0.114987159
1.581096741,0.114948365
1.580600464,0.114910683
1.580104187,0.114873919
1.579607909,0.114838704
1.579111632,0.114805525
1.578615355,0.114774666
1.578120895,0.1147463
1.577624618,0.114721249
1.577126523,0.114698651
1.576630246,0.114679301
1.576133969,0.114662799
1.575637691,0.114649217
1.575141414,0.114638563
1.574645137,0.114630424
1.574145225,0.114625346
1.573648947,0.114622429
1.573156305,0.114621983
1.572660028,0.114623292
1.572163751,0.114626217
1.571667473,0.114630433
1.571171196,0.114635248
1.570674919,0.114641144
1.57017318,0.114648355
1.569676902,0.11465675
1.569186087,0.114666538
1.56868981,0.11467788
1.568193533,0.114690732
1.567697255,0.114705148
1.567200978,0.114721027
1.566704701,0.114738229
1.566208424,0.114756594
1.565712146,0.114775839
1.565215869,0.114795914
1.564719592,0.114816614
1.564223315,0.114837809
1.563727037,0.114859328
1.56323076,0.114881073
1.562734483,0.114902946
1.562238206,0.114924922
1.561741928,0.114946971
1.561245651,0.114969065
1.560749374,0.114991203
1.560253097,0.115013335
1.559756819,0.115035449
1.559260542,0.115057477
1.55876816,0.115079424
1.558271883,0.115101026
1.55777171,0.115122976
1.557275433,0.11514429
1.556779156,0.115165326
1.556282879,0.115185969
1.555786601,0.11520621
1.555290324,0.115225956
1.554799377,0.115245269
1.554303101,0.115263775
1.553801492,0.115282302
1.553305215,0.115299718
1.552808938,0.115316382
1.552312661,0.115332123
1.551816383,0.115346855
1.551320106,0.115360509
1.550823708,0.115373077
1.55032743,0.115384641
1.549831274,0.115395243
1.549334997,0.115405006
1.54883872,0.115414016
1.548342443,0.115422425
1.547846165,0.11543036
1.547349888,0.11543793
1.546848038,0.115445119
1.54635176,0.11545204
1.545861056,0.115458349
1.545364779,0.115464404
1.544868502,0.115470036
1.544372225,0.115475273
1.543875947,0.115480148
1.54337967,0.11548475
1.54287941,0.115489134
1.542383132,0.115493454
1.541890838,0.115497675
1.541394561,0.115502023
1.540898284,0.115506412
1.540402007,0.115510846
1.539905729,0.115515269
1.539409452,0.115519583
1.538913175,0.115523674
1.538416897,0.115527314
1.53792062,0.115530307
1.537424343,0.115532407
1.536928066,0.115533367
1.536431788,0.115532882
1.729480731,0.114341467
1.728987362,0.114330629
1.728491085,0.114321706
1.727994808,0.114315482
1.727498531,0.114312265
1.727002253,0.114312309
1.726505976,0.114315135
1.726004676,0.114320198
1.725508397,0.11432788
1.725017144,0.114337975
1.724520867,0.114350289
1.72402459,0.114365325
1.723528313,0.114382297
1.723032035,0.114400733
1.722535758,0.114420191
1.722039481,0.114440172
1.721543204,0.114460516
1.721046926,0.114480994
1.720550649,0.114501464
1.71856554,0.114579245
1.720054372,0.114521741
1.719061817,0.114560861
1.718069263,0.114596556
1.719558095,0.114541605
1.717572986,0.114612533
1.717076708,0.11462694
1.716084154,0.114650227
1.715587877,0.114659051
1.712610213,0.114674655
1.712113936,0.114672276
1.716580431,0.114639572
1.715091599,0.114665764
1.71310649,0.11467577
1.711617659,0.114668989
1.714599482,0.114670795
1.709136272,0.114632161
1.70963255,0.114642249
1.713602768,0.114675492
1.711121381,0.114664297
1.714103205,0.114673934
1.708639995,0.114620589
1.710134885,0.114651052
1.710631162,0.114658281
1.707151163,0.114576027
1.70764744,0.114592555
1.708143718,0.114607401
1.706655492,0.114557775
1.706159215,0.114538011
1.705662331,0.114516619
1.705166054,0.114493985
1.704669777,0.114470206
1.7041735,0.114445424
1.703677222,0.114419827
1.703180945,0.114393389
1.702679822,0.114366239
1.702183544,0.114337918
1.701692113,0.114309934
1.701195836,0.114280808
1.700699559,0.114251418
1.700203282,0.114221958
1.699707004,0.114192667
1.699210727,0.114163745
1.698708257,0.114135586
1.698211979,0.114107529
1.697721895,0.11408163
1.697225618,0.11405582
1.696729341,0.114031019
1.696233064,0.11400723
1.695736786,0.113984534
1.695240509,0.113962977
1.694744232,0.113942637
1.694247955,0.113923486
1.693751677,0.113905555
1.6932554,0.113888813
1.692759123,0.11387331
1.692262846,0.113858963
1.691766568,0.113845783
1.691270291,0.11383369
1.690774014,0.113822759
1.690277737,0.113812835
1.689781459,0.113803967
1.689285182,0.113795995
1.688788905,0.113788845
1.688292628,0.113782384
1.68779635,0.113776514
1.687305827,0.113771059
1.686809551,0.113766514
1.686307519,0.113762364
1.685811241,0.113759458
1.685314964,0.113757644
1.684818687,0.113757681
1.68432241,0.113759317
1.683826132,0.113762674
1.683333974,0.113767372
1.682837698,0.113774284
1.682337301,0.113783066
1.681841023,0.113793567
1.681344746,0.113806079
1.680848469,0.113820361
1.680352192,0.11383645
1.679855914,0.113854235
1.679358304,0.113873621
1.678862027,0.113894403
1.678367083,0.113916135
1.677870805,0.113938936
1.677374528,0.113962322
1.676878251,0.113986112
1.676381974,0.114010031
1.675885696,0.114033899
1.675385344,0.11405754
1.674889066,0.114081075
1.674396865,0.114103562
1.673900587,0.11412603
1.67340431,0.114148033
1.672908033,0.114169628
1.672411756,0.114190798
1.671915478,0.114211611
1.671414777,0.114232015
1.670918499,0.114252346
1.670426647,0.114271898
1.669930369,0.114291752
1.669434092,0.114311623
1.668937815,0.114331686
1.668441538,0.114352056
1.66794526,0.114372817
1.667448983,0.114394019
1.666952706,0.114415706
1.666456429,0.114437878
1.665960151,0.114460549
1.665463874,0.11448374
1.664967597,0.114507442
1.66447132,0.114531653
1.663980606,0.114556375
1.663486944,0.114581304
1.662985102,0.114607477
1.662486211,0.114633977
1.661989933,0.114660682
1.661493656,0.1146878
1.660997379,0.114715224
1.660501102,0.114742829
1.660009409,0.114770514
1.659513133,0.114797756
1.65901227,0.114825521
1.658515993,0.114852161
1.658019715,0.114877979
1.657523438,0.1149027
1.657027161,0.114926117
1.656530883,0.114947972
1.656036787,0.114968158
1.65554051,0.114986278
1.655042052,0.115002667
1.654545774,0.115016649
1.654049497,0.115028359
1.65355322,0.115037812
1.653056943,0.115045031
1.652560665,0.115050091
1.652061117,0.115052852
1.651564839,0.11505375
1.651071834,0.115052318
1.650575556,0.115048844
1.650079279,0.115043725
1.649583002,0.115036327
1.649086725,0.115026825
1.648590447,0.115015501
1.648088928,0.115002777
1.64759265,0.114988934
1.647101616,0.114974949
1.646605338,0.114960397
1.646109061,0.114945987
1.645612784,0.114932075
1.645116507,0.114919042
1.644620229,0.114907226
1.644123952,0.114896854
1.643627675,0.114888114
1.643131398,0.114881519
1.64263512,0.114876961
1.642138843,0.114875114
1.641642566,0.114875821
1.641146289,0.114879007
1.640650011,0.114884369
1.640153734,0.114891716
1.639657457,0.114900621
1.63916118,0.114911243
1.638664902,0.114923282
1.638168625,0.114936126
1.637672348,0.114949068
1.637176071,0.114961531
1.636683821,0.114973098
1.636187544,0.114983331
1.635687239,0.114992503
1.635190962,0.115000355
1.634694684,0.115007288
1.802932673,0.114184578
1.802436396,0.114201788
1.803424145,0.114167721
1.801940119,0.114218826
1.803920423,0.114150465
1.801443841,0.114235589
1.804421505,0.114133658
1.800947564,0.114251899
1.806406614,0.11407063
1.804917782,0.114117203
1.800451287,0.11426759
1.805910337,0.114085653
1.805414059,0.114101212
1.79995501,0.114282505
1.799458732,0.114296488
1.798962455,0.114309426
1.798466178,0.114321199
1.7979699,0.11433167
1.797473623,0.114340709
1.796977346,0.11434826
1.796481069,0.114354281
1.795984791,0.114358926
1.795488514,0.114362094
1.794992237,0.114364018
1.79449596,0.11436474
1.793999682,0.11436476
1.793503405,0.114364394
1.793007128,0.11436374
1.792515143,0.114362895
1.792018866,0.114362075
1.791518296,0.114361312
1.791022019,0.114360656
1.790525742,0.114360068
1.790029464,0.114359436
1.789533187,0.114358727
1.78903691,0.114357942
1.788544489,0.114357127
1.788048212,0.114356476
1.787548078,0.114355967
1.787051801,0.114355998
1.786555524,0.114356568
1.786059246,0.114358108
1.785562969,0.114360557
1.785066692,0.114364021
1.784571384,0.114368334
1.784075107,0.114373474
1.78357786,0.114379436
1.783081583,0.114386243
1.782585306,0.114393944
1.782089028,0.114402535
1.781592751,0.114412026
1.781096474,0.11442235
1.780595714,0.114433473
1.780099436,0.114445357
1.779607642,0.114457513
1.779111365,0.114470395
1.778615088,0.11448369
1.77811881,0.114497345
1.777622533,0.11451126
1.777126256,0.114525409
1.776624005,0.11453973
1.776127727,0.114554379
1.775637424,0.114568618
1.775141147,0.11458328
1.77464487,0.114597968
1.774148592,0.114612609
1.773652315,0.114627146
1.773156038,0.114641457
1.772659761,0.114655477
1.772163483,0.11466913
1.771667206,0.114682416
1.771170929,0.114695322
1.770674652,0.114707844
1.770178374,0.114720013
1.769682097,0.114731767
1.76918582,0.11474311
1.768689543,0.114753875
1.768193265,0.114763967
1.767696988,0.114773222
1.767200711,0.114781435
1.766704434,0.114788447
1.766208156,0.11479412
1.765711879,0.114798174
1.765221575,0.114800712
1.764725299,0.114801249
1.764223047,0.114800387
1.76372677,0.114798097
1.763230493,0.114794599
1.762734216,0.114789861
1.762237938,0.114784024
1.761741661,0.1147773
1.761249866,0.114769826
1.76075359,0.11476181
1.760252829,0.114752999
1.759756552,0.114743931
1.759260275,0.11473476
1.758763998,0.114725847
1.75826772,0.114717703
1.757771443,0.114710927
1.757274197,0.114705893
1.756777919,0.114703088
1.756282611,0.114702662
1.755786334,0.114704121
1.755290057,0.114708181
1.754793779,0.114714532
1.754297502,0.114723471
1.753801225,0.114734578
1.753301092,0.114748122
1.752804814,0.114763825
1.752312393,0.114780997
1.751816116,0.114799713
1.751319839,0.114819427
1.750823561,0.114839726
1.750327284,0.114860207
1.749831007,0.11488046
1.749330438,0.114900003
1.74883416,0.11491857
1.748342175,0.114934939
1.747845898,0.114949622
1.747349621,0.114961975
1.746853343,0.114971814
1.746357066,0.11497904
1.745860789,0.114983631
1.745364512,0.114985924
1.744868234,0.114985015
1.744371957,0.114981564
1.74387568,0.114975001
1.743379403,0.114965629
1.742883125,0.114953295
1.742386848,0.114937892
1.741895438,0.114919778
1.741399162,0.11489946
1.740898016,0.114876443
1.740401739,0.114852051
1.739905462,0.114826261
1.739409185,0.114799398
1.738912907,0.114771821
1.73841663,0.114743734
1.737925157,0.114715289
1.737428881,0.114687166
1.736927798,0.114658154
1.736431521,0.1146302
1.735935244,0.114602825
1.735438967,0.114576274
1.734942689,0.114550612
1.734446412,0.114525899
1.733952679,0.114502056
1.733456402,0.114479563
1.73295758,0.114457759
1.732461303,0.114437502
1.731965026,0.114418435
1.731468749,0.114400587
1.730972471,0.114383943
1.730476194,0.114368489
1.729977009,0.1143544
1.906654619,0.113801584
1.907150896,0.113815509
1.907647173,0.11382854
1.908143451,0.113840772
1.908634033,0.113851923
1.909130311,0.113862778
1.909632282,0.113872758
1.91012856,0.113882064
1.915587609,0.113939575
1.916083887,0.113938891
1.920554234,0.113886855
1.920054105,0.113895356
1.910624837,0.113890864
1.915091332,0.113939142
1.916585374,0.11393679
1.92105051,0.113878281
1.919557828,0.113903298
1.911121114,0.113899112
1.914595055,0.113937435
1.917081651,0.113933719
1.921542937,0.113869188
1.91906155,0.11391079
1.911617391,0.113906772
1.912113669,0.11391384
1.914098778,0.113934622
1.917572718,0.113929231
1.922039214,0.113859746
1.918565273,0.113917697
1.912609704,0.113920262
1.9136025,0.113930787
1.918068996,0.113923916
1.922535491,0.113849746
1.913105981,0.113925939
1.923031768,0.113838774
1.923528046,0.113826525
1.924024323,0.113812847
1.9245206,0.113797209
1.925016877,0.113779261
1.925513155,0.113759248
1.926009432,0.113737228
1.926505709,0.113713594
1.927001986,0.113688847
1.927498264,0.113663485
1.927994541,0.113637959
1.928490818,0.113612694
1.928987095,0.113588082
1.929483373,0.113564404
1.92997965,0.113541884
1.930475927,0.113520575
1.930972204,0.113500484
1.931468482,0.113481582
1.931959223,0.113464132
1.932455501,0.11344691
1.932957313,0.113430638
