# x(m), q(W/m2)
0.000000000000000000e+00,4.443854649138913490e+06
4.963206074668159631e-04,3.520603717685081996e+06
9.926412149336319261e-04,2.565535405353108887e+06
1.488961822400450058e-03,2.046555853436563397e+06
1.985282429867259949e-03,1.754391903016708326e+06
2.481603037334080032e-03,1.561123884520660155e+06
2.977923644800890141e-03,1.423307261574785691e+06
3.474244252267710224e-03,1.321041872822038364e+06
3.970564859734530307e-03,1.250481379081869498e+06
4.466885467201340415e-03,1.221442885478619486e+06
4.963206074668160064e-03,1.224855299622105667e+06
5.459526682134970173e-03,1.239549664967625868e+06
5.955847289601789822e-03,1.253033031327790348e+06
6.452167897068599930e-03,1.259931318775821710e+06
6.948488504535420447e-03,1.258137935866217595e+06
7.444809112002240097e-03,1.247081899539383594e+06
7.941129719469050205e-03,1.232679943598182406e+06
8.437450326935869854e-03,1.217186496223964496e+06
8.933770934402680830e-03,1.201672458551147254e+06
9.430091541869500479e-03,1.186618317547041224e+06
9.926412149336320129e-03,1.172510279949430143e+06
1.042273275680309988e-02,1.158579149932286469e+06
1.091905336427000106e-02,1.144238875433164882e+06
1.141537397173679989e-02,1.132024176220606780e+06
1.191169457920360046e-02,1.120882363490829244e+06
1.240801518667040103e-02,1.110312442985321628e+06
1.290433579413719986e-02,1.100086361568145454e+06
1.340065640160400043e-02,1.090008896816796856e+06
1.389697700907089987e-02,1.079343047545017907e+06
1.439329761653770044e-02,1.070420236091113882e+06
1.488961822400450101e-02,1.062525371231675847e+06
1.538593883147129984e-02,1.055188628026911290e+06
1.588225943893810041e-02,1.047778510867354809e+06
1.637858004640490098e-02,1.040400684810110717e+06
1.687490065387180216e-02,1.032886461529117078e+06
1.737122126133860273e-02,1.025439207085289643e+06
1.786754186880539982e-02,1.017991927786822431e+06
1.836386247627220039e-02,1.011271156519358745e+06
1.886018308373900096e-02,1.005563617911056499e+06
1.935650369120579806e-02,1.000504780240683700e+06
1.985282429867260209e-02,9.957422625668649562e+05
2.034914490613949981e-02,9.907080317979445681e+05
2.084546551360630037e-02,9.854501102708482649e+05
2.134178612107310094e-02,9.798681472822600044e+05
2.183810672853989804e-02,9.738255139391541015e+05
2.233442733600670208e-02,9.680682760481034638e+05
2.283074794347350264e-02,9.632828470574953826e+05
2.332706855094029974e-02,9.588502456168591743e+05
2.382338915840710031e-02,9.546397633439503843e+05
2.431970976587399802e-02,9.508203402582345298e+05
2.481603037334080206e-02,9.474584358729803935e+05
2.531235098080760262e-02,9.442623326971411007e+05
2.580867158827439972e-02,9.404527547518932261e+05
2.630499219574120029e-02,9.366591419569505379e+05
2.680131280320800086e-02,9.326179706707453588e+05
2.729763341067479795e-02,9.283419243885459146e+05
2.779395401814170261e-02,9.238226448311011773e+05
2.829027462560849970e-02,9.193818410488718655e+05
2.878659523307530027e-02,9.157874310865744483e+05
2.928291584054210084e-02,9.126080561533676228e+05
2.977923644800889794e-02,9.097128152087829076e+05
3.027555705547570197e-02,9.071744851517153438e+05
3.077187766294250254e-02,9.045815216773600550e+05
3.126819827040940025e-02,9.018930478285732679e+05
3.176451887787620082e-02,8.993468519368836423e+05
3.226083948534300139e-02,8.969471239233631641e+05
3.275716009280980195e-02,8.940759434574609622e+05
3.325348070027659558e-02,8.911638307726503117e+05
3.374980130774339615e-02,8.880088940323061543e+05
3.424612191521020366e-02,8.847899495587998535e+05
3.474244252267710137e-02,8.815692540844854666e+05
3.523876313014390194e-02,8.783299732565679587e+05
3.573508373761070250e-02,8.751559874194351723e+05
3.623140434507750307e-02,8.722214504302171990e+05
3.672772495254430364e-02,8.696161677500157384e+05
3.722404556001109727e-02,8.673281358122262172e+05
3.772036616747789783e-02,8.651482663046327652e+05
3.821668677494469840e-02,8.630335395124946954e+05
3.871300738241159611e-02,8.609597429474449018e+05
3.920932798987840362e-02,8.590192292106968816e+05
3.970564859734520419e-02,8.569354747362397611e+05
4.020196920481200475e-02,8.546832855689738644e+05
4.069828981227880532e-02,8.523145569064775482e+05
4.119461041974559895e-02,8.499816506252302788e+05
4.169093102721239952e-02,8.476884233003050322e+05
4.218725163467920009e-02,8.453635572414696217e+05
4.268357224214609780e-02,8.429787464895519661e+05
4.317989284961289836e-02,8.405394758608766133e+05
4.367621345707969893e-02,8.381213117434523301e+05
4.417253406454649950e-02,8.357925799580994062e+05
4.466885467201330701e-02,8.335933916133348830e+05
4.516517527948010063e-02,8.315298597167499829e+05
4.566149588694700528e-02,8.296124552239313489e+05
4.615781649441379891e-02,8.278250050420780899e+05
4.665413710188059948e-02,8.261736868638879387e+05
4.715045770934740005e-02,8.245985642505798023e+05
4.764677831681420062e-02,8.231200724733069073e+05
4.814309892428100118e-02,8.216883980470986571e+05
4.863941953174780175e-02,8.202953198296567425e+05
4.913574013921469946e-02,8.188923357251955895e+05
4.963206074668150697e-02,8.173777479864858324e+05
5.012838135414830060e-02,8.158001110814582789e+05
5.062470196161510116e-02,8.142428531557045644e+05
5.112102256908190173e-02,8.127480200255746022e+05
5.161734317654870230e-02,8.112335805501480354e+05
5.211366378401550287e-02,8.096341068020586390e+05
5.260998439148230343e-02,8.079485465700790519e+05
5.310630499894920115e-02,8.062214994615350151e+05
5.360262560641600171e-02,8.045573979250612902e+05
5.409894621388279534e-02,8.029527801234562648e+05
5.459526682134959591e-02,8.013647913220457267e+05
5.509158742881640342e-02,7.997691201137191383e+05
5.558790803628320398e-02,7.981664731156545458e+05
5.608422864375000455e-02,7.965759690193705028e+05
5.658054925121690226e-02,7.950172612566557946e+05
5.707686985868370283e-02,7.935092821151793469e+05
5.757319046615050340e-02,7.920597408669252181e+05
5.806951107361729703e-02,7.906675741476480616e+05
5.856583168108409759e-02,7.893232028652406298e+05
5.906215228855089816e-02,7.880210038519505179e+05
5.955847289601769873e-02,7.867524356614093995e+05
6.005479350348460338e-02,7.855421625864520902e+05
6.055111411095140395e-02,7.843498144648609450e+05
6.104743471841820451e-02,7.832002682356700534e+05
6.154375532588500508e-02,7.820993166562968399e+05
6.204007593335180565e-02,7.810324513463001931e+05
6.253639654081860622e-02,7.799782264876230620e+05
6.303271714828539984e-02,7.789321539825211512e+05
6.352903775575220735e-02,7.779123613778750878e+05
6.402535836321900098e-02,7.769123847245163051e+05
6.452167897068590563e-02,7.758857003451728960e+05
6.501799957815269926e-02,7.748326310150206555e+05
6.551432018561949289e-02,7.738018351814124035e+05
6.601064079308630039e-02,7.728236774322133278e+05
6.650696140055309402e-02,7.718945817954828963e+05
6.700328200801990153e-02,7.709980255652096821e+05
6.749960261548679230e-02,7.701195728875664063e+05
6.799592322295361368e-02,7.692140017233529361e+05
6.849224383042040731e-02,7.682344098569715861e+05
6.898856443788720094e-02,7.672118506395493168e+05
6.948488504535400845e-02,7.662091954070149222e+05
6.998120565282080208e-02,7.652411194478130201e+05
7.047752626028760958e-02,7.642998304496129276e+05
7.097384686775450036e-02,7.633221078990453389e+05
7.147016747522130786e-02,7.623186954513344681e+05
7.196648808268810149e-02,7.612899643345802324e+05
7.246280869015490900e-02,7.602388929417151958e+05
7.295912929762170263e-02,7.591837075062356889e+05
7.345544990508849625e-02,7.581377056997828186e+05
7.395177051255530376e-02,7.571081691527771764e+05
7.444809112002219453e-02,7.560975719153492246e+05
7.494441172748900204e-02,7.551077754395435331e+05
7.544073233495579567e-02,7.541381674602665007e+05
7.593705294242260317e-02,7.531821504181980854e+05
7.643337354988939680e-02,7.522301175487514120e+05
7.692969415735619043e-02,7.512753955192599678e+05
7.742601476482299794e-02,7.503166662301995093e+05
7.792233537228988871e-02,7.493588368675600505e+05
7.841865597975659907e-02,7.484087626638720976e+05
7.891497658722350372e-02,7.474684145729838638e+05
7.941129719469031123e-02,7.465454578635209473e+05
7.990761780215710486e-02,7.456676992889288813e+05
8.040393840962391236e-02,7.448018812210424803e+05
8.090025901709070599e-02,7.439484463772894815e+05
8.139657962455761064e-02,7.430695137947225012e+05
8.189290023202440427e-02,7.421876235044328496e+05
8.238922083949119790e-02,7.413004066604711115e+05
8.288554144695800541e-02,7.404366165492205182e+05
8.338186205442479904e-02,7.395770810645901365e+05
8.387818266189160654e-02,7.387148466761527816e+05
8.437450326935840017e-02,7.378459004287698772e+05
8.487082387682519380e-02,7.369900798292701365e+05
8.536714448429200131e-02,7.361667596009661211e+05
8.586346509175889208e-02,7.353757635692652548e+05
8.635978569922569958e-02,7.346177902945044916e+05
8.685610630669249321e-02,7.338772216429281980e+05
8.735242691415930072e-02,7.331460465717102634e+05
8.784874752162609435e-02,7.324172586599424249e+05
8.834506812909290185e-02,7.316889612565067364e+05
8.884138873655979263e-02,7.309130008391459705e+05
8.933770934402661401e-02,7.301467415831871331e+05
8.983402995149340764e-02,7.293760532636769349e+05
9.033035055896020127e-02,7.286206800224459730e+05
9.082667116642700877e-02,7.278860357558552641e+05
9.132299177389380240e-02,7.271623343511749990e+05
9.181931238136060991e-02,7.264436463805370731e+05
9.231563298882740354e-02,7.257242421582564712e+05
9.281195359629430819e-02,7.250006709859267576e+05
9.330827420376110182e-02,7.242732895344468998e+05
9.380459481122790932e-02,7.235444331628051586e+05
9.430091541869470295e-02,7.228165939265529159e+05
9.479723602616149658e-02,7.220917328751075547e+05
9.529355663362830409e-02,7.213711987441061065e+05
9.578987724109509772e-02,7.206559330751606030e+05
9.628619784856190522e-02,7.199463951707992237e+05
9.678251845602879599e-02,7.192420756380921230e+05
9.727883906349560350e-02,7.185425859783381457e+05
9.777515967096239713e-02,7.178489311482001795e+05
9.827148027842919076e-02,7.171621511776710395e+05
9.876780088589599826e-02,7.164810553227735218e+05
9.926412149336279189e-02,7.158027848354380112e+05
9.976044210082971042e-02,7.151251047469738405e+05
1.002567627082959906e-01,7.144478030692843022e+05
1.007530833157630062e-01,7.137725830031019868e+05
1.012494039232300080e-01,7.131019710570508614e+05
1.017457245306970098e-01,7.124387460205046227e+05
1.022420451381639978e-01,7.117820086927558295e+05
1.027383657456309995e-01,7.111330296361813089e+05
1.032346863530970021e-01,7.104992284258161671e+05
1.037310069605640039e-01,7.098757546093480196e+05
1.042273275680310057e-01,7.092721582135501085e+05
1.047236481754980075e-01,7.086867605343867326e+05
1.052199687829649954e-01,7.081078158818399534e+05
1.057162893904309980e-01,7.075200049418431008e+05
1.062126099978979998e-01,7.069154337157153059e+05
1.067089306053650016e-01,7.062980380569739500e+05
1.072052512128320034e-01,7.056783468488329090e+05
1.077015718202989913e-01,7.050624039819338359e+05
1.081978924277649939e-01,7.044488905897488585e+05
1.086942130352319957e-01,7.038265928646549582e+05
1.091905336426989975e-01,7.031980293935918016e+05
1.096868542501659993e-01,7.025603493399888976e+05
1.101831748576330011e-01,7.019248026033652714e+05
1.106794954651000029e-01,7.013211450891466811e+05
1.111758160725659916e-01,7.007286283913900843e+05
1.116721366800330073e-01,7.001574959111212520e+05
1.121684572875000091e-01,6.996037413840766530e+05
1.126647778949670109e-01,6.990564245982441353e+05
1.131610985024339988e-01,6.985089511761378963e+05
1.136574191099000014e-01,6.979625129925884539e+05
1.141537397173670032e-01,6.974196156002574135e+05
1.146500603248340050e-01,6.968769929439665284e+05
1.151463809323010068e-01,6.963220381157064112e+05
1.156427015397679947e-01,6.957658484634201741e+05
1.161390221472339973e-01,6.952054954189063283e+05
1.166353427547009991e-01,6.946486279598001856e+05
1.171316633621680009e-01,6.940984962520094123e+05
1.176279839696350027e-01,6.935518445027868729e+05
1.181243045771019906e-01,6.930034897064988036e+05
1.186206251845689924e-01,6.924494826450368855e+05
1.191169457920349950e-01,6.918886956714140251e+05
1.196132663995019968e-01,6.913234169633857673e+05
1.201095870069689986e-01,6.907558316491628066e+05
1.206059076144360143e-01,6.901879853225289844e+05
1.211022282219030022e-01,6.896213105658057611e+05
1.215985488293689909e-01,6.890568471766255097e+05
1.220948694368360066e-01,6.884957730024988996e+05
1.225911900443030084e-01,6.879398087324054213e+05
1.230875106517700102e-01,6.873909336900697090e+05
1.235838312592369981e-01,6.868506096848985180e+05
1.240801518667039999e-01,6.863197025404796004e+05
1.245764724741700025e-01,6.857979989741450408e+05
1.250727930816370181e-01,6.852847612243160838e+05
1.255691136891040061e-01,6.847790399630294414e+05
1.260654342965709940e-01,6.842796539053706219e+05
1.265617549040380097e-01,6.837858445861936780e+05
1.270580755115039984e-01,6.832969250277852407e+05
1.275543961189710140e-01,6.828122288111016387e+05
1.280507167264380020e-01,6.823311517476749141e+05
1.285470373339049899e-01,6.818533250142971519e+05
1.290433579413720055e-01,6.813784076543379342e+05
1.295396785488389935e-01,6.809062403022537474e+05
1.300359991563050099e-01,6.804361722771831555e+05
1.305323197637719979e-01,6.799711745543427533e+05
1.310286403712389858e-01,6.795087526908868458e+05
1.315249609787060014e-01,6.790498964239207562e+05
1.320212815861729894e-01,6.785950250855042832e+05
1.325176021936399773e-01,6.781436558715339052e+05
1.330139228011069930e-01,6.776958092193887569e+05
1.335102434085729817e-01,6.772516941537604434e+05
1.340065640160399973e-01,6.768118254821597366e+05
1.345028846235069853e-01,6.763780651314575225e+05
1.349992052309740287e-01,6.759540004008443793e+05
1.354955258384410166e-01,6.755435471404149430e+05
1.359918464459080045e-01,6.751472852073803078e+05
1.364881670533740210e-01,6.747599383619354339e+05
1.369844876608410089e-01,6.743711070467942627e+05
1.374808082683080246e-01,6.739695115840910003e+05
1.379771288757750125e-01,6.735475918220710009e+05
1.384734494832420004e-01,6.731123968990558060e+05
1.389697700907090161e-01,6.726540025486530503e+05
1.394660906981750048e-01,6.721953148007242708e+05
1.399624113056420205e-01,6.717323060318866046e+05
1.404587319131090084e-01,6.712671047989518847e+05
1.409550525205759963e-01,6.707986551667437889e+05
1.414513731280430120e-01,6.703243993011713028e+05
1.419476937355099999e-01,6.698448852284331806e+05
1.424440143429770156e-01,6.693664540730647277e+05
1.429403349504430043e-01,6.688979451425472507e+05
1.434366555579099922e-01,6.684429322037871461e+05
1.439329761653770079e-01,6.680051342683010735e+05
1.444292967728439958e-01,6.675808717529351125e+05
1.449256173803110115e-01,6.671647038533716695e+05
1.454219379877779994e-01,6.667567133500232594e+05
1.459182585952439881e-01,6.663536955135915196e+05
1.464145792027110038e-01,6.659528494327277876e+05
1.469108998101779917e-01,6.655525937445792370e+05
1.474072204176450074e-01,6.651541844650997082e+05
1.479035410251119953e-01,6.647601804048750782e+05
1.483998616325789832e-01,6.643720396673367359e+05
1.488961822400449997e-01,6.639886530443143565e+05
1.493925028475119876e-01,6.636069259772293735e+05
1.498888234549790033e-01,6.632250845072367229e+05
1.503851440624459912e-01,6.628445376779892249e+05
1.508814646699129791e-01,6.624673920300694881e+05
1.513777852773800225e-01,6.620943801537147956e+05
1.518741058848470105e-01,6.617243513493719511e+05
1.523704264923129992e-01,6.613522471915972419e+05
1.528667470997800149e-01,6.609753203348420793e+05
1.533630677072470028e-01,6.605961023336851504e+05
1.538593883147140184e-01,6.602127075319845462e+05
1.543557089221810064e-01,6.598267561207052786e+05
1.548520295296480220e-01,6.594399697470375104e+05
1.553483501371140107e-01,6.590536052298715804e+05
1.558446707445809987e-01,6.586686073589411099e+05
1.563409913520480143e-01,6.582858886941366363e+05
1.568373119595150023e-01,6.579063930424446007e+05
1.573336325669820179e-01,6.575311299502414186e+05
1.578299531744490058e-01,6.571610202023086604e+05
1.583262737819150223e-01,6.567967146987059386e+05
1.588225943893820102e-01,6.564378669212777168e+05
1.593189149968489982e-01,6.560860657411785796e+05
1.598152356043160138e-01,6.557384367778905435e+05
1.603115562117830017e-01,6.553941227012558375e+05
1.608078768192499897e-01,6.550530252198581584e+05
1.613041974267160061e-01,6.547136965144831920e+05
1.618005180341829941e-01,6.543749009240125306e+05
1.622968386416500097e-01,6.540359082946149865e+05
1.627931592491169976e-01,6.536962996481148293e+05
1.632894798565839856e-01,6.533556131020770408e+05
1.637858004640510012e-01,6.530139485164377838e+05
1.642821210715179892e-01,6.526693986607618863e+05
1.647784416789840056e-01,6.523243347998838872e+05
1.652747622864509935e-01,6.519793049386475468e+05
1.657710828939180092e-01,6.516320495816343464e+05
1.662674035013849971e-01,6.512814499806838576e+05
1.667637241088519851e-01,6.509277412930023856e+05
1.672600447163190007e-01,6.505704502071939642e+05
1.677563653237849894e-01,6.502089623121481854e+05
1.682526859312520051e-01,6.498432550987321883e+05
1.687490065387189930e-01,6.494736504388621543e+05
1.692453271461860087e-01,6.491004933607068378e+05
1.697416477536530244e-01,6.487239953910366166e+05
1.702379683611200123e-01,6.483443559722884092e+05
1.707342889685860010e-01,6.479619244617107324e+05
1.712306095760530167e-01,6.475773771345677087e+05
1.717269301835200046e-01,6.471916772614242509e+05
1.722232507909870203e-01,6.468056215879486408e+05
1.727195713984540082e-01,6.464197570125277853e+05
1.732158920059209961e-01,6.460351103342387360e+05
1.737122126133880118e-01,6.456541179743872490e+05
1.742085332208540005e-01,6.452802885956787504e+05
1.747048538283210162e-01,6.449165676868527662e+05
1.752011744357880041e-01,6.445641365042484831e+05
1.756974950432550198e-01,6.442213307366484078e+05
1.761938156507220077e-01,6.438833277594540268e+05
1.766901362581889956e-01,6.435448956557040801e+05
1.771864568656550121e-01,6.432025401733035687e+05
1.776827774731220000e-01,6.428544197342561092e+05
1.781790980805890157e-01,6.425022024141385918e+05
1.786754186880560036e-01,6.421498779352880083e+05
1.791717392955229915e-01,6.418011511441636831e+05
1.796680599029900072e-01,6.414583544707848923e+05
1.801643805104569951e-01,6.411221284268031595e+05
1.806607011179230116e-01,6.407910217275215546e+05
1.811570217253899995e-01,6.404674148338341620e+05
1.816533423328569874e-01,6.401449877358577214e+05
1.821496629403240031e-01,6.398247367077700328e+05
1.826459835477909910e-01,6.395036268897071714e+05
1.831423041552579789e-01,6.391842804430488031e+05
1.836386247627239954e-01,6.388674519744573627e+05
1.841349453701909833e-01,6.385564849915847881e+05
1.846312659776579990e-01,6.382544316694557201e+05
1.851275865851249869e-01,6.379631601613052189e+05
1.856239071925920026e-01,6.376828466218009125e+05
1.861202278000590182e-01,6.374118334883884527e+05
1.866165484075249792e-01,6.371472166676047491e+05
1.871128690149919949e-01,6.368858292705628555e+05
1.876091896224590105e-01,6.366248902378429193e+05
1.881055102299260262e-01,6.363623362534462940e+05
1.886018308373930141e-01,6.360971593470068183e+05
1.890981514448600020e-01,6.358292633125581779e+05
1.895944720523260185e-01,6.355591071500264807e+05
1.900907926597930064e-01,6.352874774045691593e+05
1.905871132672600221e-01,6.350147901694452157e+05
1.910834338747270100e-01,6.347429567276767921e+05
1.915797544821939979e-01,6.344709152887245873e+05
1.920760750896610136e-01,6.341982268901279895e+05
1.925723956971280015e-01,6.339251773916278034e+05
1.930687163045940180e-01,6.336511549075148068e+05
1.935650369120610059e-01,6.333755000719702803e+05
1.940613575195279938e-01,6.330984303697784198e+05
1.945576781269950095e-01,6.328209352640437428e+05
1.950539987344619974e-01,6.325440457935779123e+05
1.955503193419290131e-01,6.322683128218614729e+05
1.960466399493950018e-01,6.319945252995059127e+05
1.965429605568619897e-01,6.317191555458146613e+05
1.970392811643290054e-01,6.314448534375572344e+05
1.975356017717959933e-01,6.311688549104924314e+05
