# x(m), q(W/m2)
0.000000000000000000e+00,4.511550593501732685e+06
4.963206074668159631e-04,3.421799220431773923e+06
9.926412149336319261e-04,2.491579432623501867e+06
1.488961822400450058e-03,1.989952056040424854e+06
1.985282429867259949e-03,1.715532933569028275e+06
2.481603037334080032e-03,1.538605217181381071e+06
2.977923644800890141e-03,1.415033772682252340e+06
3.474244252267710224e-03,1.323929497512954287e+06
3.970564859734530307e-03,1.251979865283208434e+06
4.466885467201340415e-03,1.194672406262830133e+06
4.963206074668160064e-03,1.147704789943543728e+06
5.459526682134970173e-03,1.107587383645704016e+06
5.955847289601789822e-03,1.071599774472461082e+06
6.452167897068599930e-03,1.043587054722015164e+06
6.948488504535420447e-03,1.018526830150117399e+06
7.444809112002240097e-03,9.958548899128017947e+05
7.941129719469050205e-03,9.765677342422619695e+05
8.437450326935869854e-03,9.588580911833188729e+05
8.933770934402680830e-03,9.425470263906134060e+05
9.430091541869500479e-03,9.280673483636380406e+05
9.926412149336320129e-03,9.152521268025983591e+05
1.042273275680309988e-02,9.034836854334265226e+05
1.091905336427000106e-02,8.925569552658683388e+05
1.141537397173679989e-02,8.820796225187643431e+05
1.191169457920360046e-02,8.725340741254615132e+05
1.240801518667040103e-02,8.643046497240477474e+05
1.290433579413719986e-02,8.570513939983764431e+05
1.340065640160400043e-02,8.495098948355824687e+05
1.389697700907089987e-02,8.423228448093009647e+05
1.439329761653770044e-02,8.350614723253997508e+05
1.488961822400450101e-02,8.281538984869444976e+05
1.538593883147129984e-02,8.223762185801718151e+05
1.588225943893810041e-02,8.170795738270650618e+05
1.637858004640490098e-02,8.123858900645554531e+05
1.687490065387180216e-02,8.078464218578332802e+05
1.737122126133860273e-02,8.029473483023399021e+05
1.786754186880539982e-02,7.979847492356329458e+05
1.836386247627220039e-02,7.927105103820589138e+05
1.886018308373900096e-02,7.876282708841713611e+05
1.935650369120579806e-02,7.837261644747267710e+05
1.985282429867260209e-02,7.801721120838284260e+05
2.034914490613949981e-02,7.768954643169840565e+05
2.084546551360630037e-02,7.737582416837210767e+05
2.134178612107310094e-02,7.708248781143126544e+05
2.183810672853989804e-02,7.674234524015580537e+05
2.233442733600670208e-02,7.640310026351928245e+05
2.283074794347350264e-02,7.604316091386873741e+05
2.332706855094029974e-02,7.568081256527577061e+05
2.382338915840710031e-02,7.531585700840892969e+05
2.431970976587399802e-02,7.505159027396935271e+05
2.481603037334080206e-02,7.479400735717504285e+05
2.531235098080760262e-02,7.457349399717148626e+05
2.580867158827439972e-02,7.437644325460869586e+05
2.630499219574120029e-02,7.417920651354849106e+05
2.680131280320800086e-02,7.394862883196047042e+05
2.729763341067479795e-02,7.370451626428301679e+05
2.779395401814170261e-02,7.346015908120867098e+05
2.829027462560849970e-02,7.320794720080177067e+05
2.878659523307530027e-02,7.294734019413656788e+05
2.928291584054210084e-02,7.268285371918356977e+05
2.977923644800889794e-02,7.243365626047934638e+05
3.027555705547570197e-02,7.220608900780223776e+05
3.077187766294250254e-02,7.202899229321734747e+05
3.126819827040940025e-02,7.186234996759982314e+05
3.176451887787620082e-02,7.171877874187461566e+05
3.226083948534300139e-02,7.158851367918585893e+05
3.275716009280980195e-02,7.145938674065286759e+05
3.325348070027659558e-02,7.132376185130788945e+05
3.374980130774339615e-02,7.117830008369515417e+05
3.424612191521020366e-02,7.099258654637755826e+05
3.474244252267710137e-02,7.080083349123663502e+05
3.523876313014390194e-02,7.059124560126247816e+05
3.573508373761070250e-02,7.038366753075962188e+05
3.623140434507750307e-02,7.018533856886475114e+05
3.672772495254430364e-02,6.999268530380175216e+05
3.722404556001109727e-02,6.980514554997889791e+05
3.772036616747789783e-02,6.962664885277646827e+05
3.821668677494469840e-02,6.946429871985323261e+05
3.871300738241159611e-02,6.931434104358211625e+05
3.920932798987840362e-02,6.919059897345921490e+05
3.970564859734520419e-02,6.907272779729982140e+05
4.020196920481200475e-02,6.897083517795332009e+05
4.069828981227880532e-02,6.888042084806961939e+05
4.119461041974559895e-02,6.878721695866013179e+05
4.169093102721239952e-02,6.868450624230484245e+05
4.218725163467920009e-02,6.855964635054460960e+05
4.268357224214609780e-02,6.843062306061260169e+05
4.317989284961289836e-02,6.828895787600473268e+05
4.367621345707969893e-02,6.813394824576094979e+05
4.417253406454649950e-02,6.796897505758376792e+05
4.466885467201330701e-02,6.779920606669109548e+05
4.516517527948010063e-02,6.763073135708139744e+05
4.566149588694700528e-02,6.746928121314545861e+05
4.615781649441379891e-02,6.731832891401130473e+05
4.665413710188059948e-02,6.718062603079995606e+05
4.715045770934740005e-02,6.705391924947969383e+05
4.764677831681420062e-02,6.693664190404331312e+05
4.814309892428100118e-02,6.682748932103537954e+05
4.863941953174780175e-02,6.672549728246656014e+05
4.913574013921469946e-02,6.663266774149645353e+05
4.963206074668150697e-02,6.654453595972299809e+05
5.012838135414830060e-02,6.646456791556568351e+05
5.062470196161510116e-02,6.639184896552962018e+05
5.112102256908190173e-02,6.632397103813524591e+05
5.161734317654870230e-02,6.625860649797590449e+05
5.211366378401550287e-02,6.619403341355641605e+05
5.260998439148230343e-02,6.612746108976313844e+05
5.310630499894920115e-02,6.605610529512107605e+05
5.360262560641600171e-02,6.596472272880477831e+05
5.409894621388279534e-02,6.587124300773988944e+05
5.459526682134959591e-02,6.577062043621925404e+05
5.509158742881640342e-02,6.566775807395618176e+05
5.558790803628320398e-02,6.556663531848357525e+05
5.608422864375000455e-02,6.546845008725292282e+05
5.658054925121690226e-02,6.537184458761535352e+05
5.707686985868370283e-02,6.527538403411991894e+05
5.757319046615050340e-02,6.517873453637877246e+05
5.806951107361729703e-02,6.508120611281491583e+05
5.856583168108409759e-02,6.498210480275769951e+05
5.906215228855089816e-02,6.488192004606556147e+05
5.955847289601769873e-02,6.478387188602362294e+05
6.005479350348460338e-02,6.469105911538436776e+05
6.055111411095140395e-02,6.460484461667761207e+05
6.104743471841820451e-02,6.452342360752592795e+05
6.154375532588500508e-02,6.444552769171399996e+05
6.204007593335180565e-02,6.436950300928174984e+05
6.253639654081860622e-02,6.429680548037316184e+05
6.303271714828539984e-02,6.422540398425663589e+05
6.352903775575220735e-02,6.415682932415918913e+05
6.402535836321900098e-02,6.409145202403358417e+05
6.452167897068590563e-02,6.402924408520349534e+05
6.501799957815269926e-02,6.396983969506474677e+05
6.551432018561949289e-02,6.391250663484683027e+05
6.601064079308630039e-02,6.385660599280353636e+05
6.650696140055309402e-02,6.380176904733305564e+05
6.700328200801990153e-02,6.374779269047572743e+05
6.749960261548679230e-02,6.369471821891912259e+05
6.799592322295361368e-02,6.364239281382668996e+05
6.849224383042040731e-02,6.358968750260984525e+05
6.898856443788720094e-02,6.353441212420118973e+05
6.948488504535400845e-02,6.347550520063284785e+05
6.998120565282080208e-02,6.341516306533896131e+05
7.047752626028760958e-02,6.335498738726280862e+05
7.097384686775450036e-02,6.329520343950677197e+05
7.147016747522130786e-02,6.323586357307833387e+05
7.196648808268810149e-02,6.317756794448863948e+05
7.246280869015490900e-02,6.312074090074435808e+05
7.295912929762170263e-02,6.306496917521104915e+05
7.345544990508849625e-02,6.300922973948298022e+05
7.395177051255530376e-02,6.295277998636554694e+05
7.444809112002219453e-02,6.289555418198753614e+05
7.494441172748900204e-02,6.283862394412086578e+05
7.544073233495579567e-02,6.278268120149745373e+05
7.593705294242260317e-02,6.272668499873642577e+05
7.643337354988939680e-02,6.266818185710567050e+05
7.692969415735619043e-02,6.260793377522737719e+05
7.742601476482299794e-02,6.254872888935004594e+05
7.792233537228988871e-02,6.249129034155640984e+05
7.841865597975659907e-02,6.243510980018017581e+05
7.891497658722350372e-02,6.237858216004751157e+05
7.941129719469031123e-02,6.231988970163228223e+05
7.990761780215710486e-02,6.226109977276386926e+05
8.040393840962391236e-02,6.220128468858207343e+05
8.090025901709070599e-02,6.214105542256227927e+05
8.139657962455761064e-02,6.208121830202724086e+05
8.189290023202440427e-02,6.202221512820271309e+05
8.238922083949119790e-02,6.196413802892514504e+05
8.288554144695800541e-02,6.190698317370599834e+05
8.338186205442479904e-02,6.185072360106513370e+05
8.387818266189160654e-02,6.179532369472775608e+05
8.437450326935840017e-02,6.174067549012240488e+05
8.487082387682519380e-02,6.168667154574200977e+05
8.536714448429200131e-02,6.163324226296846755e+05
8.586346509175889208e-02,6.158029622713743011e+05
8.635978569922569958e-02,6.152785427142470144e+05
8.685610630669249321e-02,6.147624836712224642e+05
8.735242691415930072e-02,6.142593686777774710e+05
8.784874752162609435e-02,6.137654860450921115e+05
8.834506812909290185e-02,6.132712992606138578e+05
8.884138873655979263e-02,6.127701867845661473e+05
8.933770934402661401e-02,6.122565937421589624e+05
8.983402995149340764e-02,6.117306886791645084e+05
9.033035055896020127e-02,6.112051133316605119e+05
9.082667116642700877e-02,6.106943469507819973e+05
9.132299177389380240e-02,6.102009307418481912e+05
9.181931238136060991e-02,6.097195330626223003e+05
9.231563298882740354e-02,6.092559772429825971e+05
9.281195359629430819e-02,6.088017634255727753e+05
9.330827420376110182e-02,6.083654491296260385e+05
9.380459481122790932e-02,6.079418434401876293e+05
9.430091541869470295e-02,6.075231325504761189e+05
9.479723602616149658e-02,6.071041643416639417e+05
9.529355663362830409e-02,6.066827108833404491e+05
9.578987724109509772e-02,6.062583034413710702e+05
9.628619784856190522e-02,6.058301637307644123e+05
9.678251845602879599e-02,6.053990319107839605e+05
9.727883906349560350e-02,6.049683753732029581e+05
9.777515967096239713e-02,6.045381615592669696e+05
9.827148027842919076e-02,6.041054214275421109e+05
9.876780088589599826e-02,6.036481522715936881e+05
9.926412149336279189e-02,6.031920168381188996e+05
9.976044210082971042e-02,6.027414448404433206e+05
1.002567627082959906e-01,6.022985588055350818e+05
1.007530833157630062e-01,6.018653887195362477e+05
1.012494039232300080e-01,6.014377700947728008e+05
1.017457245306970098e-01,6.010020755563753191e+05
1.022420451381639978e-01,6.005643083094925387e+05
1.027383657456309995e-01,6.001220281566976337e+05
1.032346863530970021e-01,5.996759216568844859e+05
1.037310069605640039e-01,5.992291182514383690e+05
1.042273275680310057e-01,5.987841488035997609e+05
1.047236481754980075e-01,5.983428116672727047e+05
1.052199687829649954e-01,5.979064867940753466e+05
1.057162893904309980e-01,5.974760122444877634e+05
1.062126099978979998e-01,5.970515436247478938e+05
1.067089306053650016e-01,5.966326563657216029e+05
1.072052512128320034e-01,5.962185571638923138e+05
1.077015718202989913e-01,5.958083123639548430e+05
1.081978924277649939e-01,5.954010003169270931e+05
1.086942130352319957e-01,5.949958310315966373e+05
1.091905336426989975e-01,5.945922561333964113e+05
1.096868542501659993e-01,5.941896271087472560e+05
1.101831748576330011e-01,5.937892852250151336e+05
1.106794954651000029e-01,5.933895504252647515e+05
1.111758160725659916e-01,5.929908164463657886e+05
1.116721366800330073e-01,5.925952200884110061e+05
1.121684572875000091e-01,5.922061042748596519e+05
1.126647778949670109e-01,5.918252181023249868e+05
1.131610985024339988e-01,5.914572288127982756e+05
1.136574191099000014e-01,5.910884782836645609e+05
1.141537397173670032e-01,5.907192437319704331e+05
1.146500603248340050e-01,5.903434878142970847e+05
1.151463809323010068e-01,5.899583057078880956e+05
1.156427015397679947e-01,5.895646274525874760e+05
1.161390221472339973e-01,5.891652979549942538e+05
1.166353427547009991e-01,5.887650998772552703e+05
1.171316633621680009e-01,5.883701678408632288e+05
1.176279839696350027e-01,5.879832870396296494e+05
1.181243045771019906e-01,5.876020602772192797e+05
1.186206251845689924e-01,5.872245688654889818e+05
1.191169457920349950e-01,5.868522313200627686e+05
1.196132663995019968e-01,5.864863384053967893e+05
1.201095870069689986e-01,5.861350624596190173e+05
1.206059076144360143e-01,5.857848540086925495e+05
1.211022282219030022e-01,5.854376717263639439e+05
1.215985488293689909e-01,5.850893893852165202e+05
1.220948694368360066e-01,5.847378917149103945e+05
1.225911900443030084e-01,5.843843753834350500e+05
1.230875106517700102e-01,5.840281855948130833e+05
1.235838312592369981e-01,5.836712530993140535e+05
1.240801518667039999e-01,5.833158625838333974e+05
1.245764724741700025e-01,5.829628437961923191e+05
1.250727930816370181e-01,5.826163901238022372e+05
1.255691136891040061e-01,5.822739368408207083e+05
1.260654342965709940e-01,5.819372686786703998e+05
1.265617549040380097e-01,5.816064616682714550e+05
1.270580755115039984e-01,5.812776794414544711e+05
1.275543961189710140e-01,5.809486867195131490e+05
1.280507167264380020e-01,5.806217753807288827e+05
1.285470373339049899e-01,5.803009085569612216e+05
1.290433579413720055e-01,5.799887299972365145e+05
1.295396785488389935e-01,5.796835225611029891e+05
1.300359991563050099e-01,5.793799237237446941e+05
1.305323197637719979e-01,5.790727999634817243e+05
1.310286403712389858e-01,5.787598140861053253e+05
1.315249609787060014e-01,5.784411079174657352e+05
1.320212815861729894e-01,5.781179782870089402e+05
1.325176021936399773e-01,5.777920384330779780e+05
1.330139228011069930e-01,5.774636623741379008e+05
1.335102434085729817e-01,5.771369702568707289e+05
1.340065640160399973e-01,5.768111840406961273e+05
1.345028846235069853e-01,5.764896098485272378e+05
1.349992052309740287e-01,5.761700574745147023e+05
1.354955258384410166e-01,5.758540180282511283e+05
1.359918464459080045e-01,5.755411152886322234e+05
1.364881670533740210e-01,5.752305104036889970e+05
1.369844876608410089e-01,5.749212223732615821e+05
1.374808082683080246e-01,5.746124533997351537e+05
1.379771288757750125e-01,5.743017060410972917e+05
1.384734494832420004e-01,5.739922963745916495e+05
1.389697700907090161e-01,5.736810309085823828e+05
1.394660906981750048e-01,5.733681234351318562e+05
1.399624113056420205e-01,5.730546807787466096e+05
1.404587319131090084e-01,5.727409315053265309e+05
1.409550525205759963e-01,5.724267757181437919e+05
1.414513731280430120e-01,5.721123054127384676e+05
1.419476937355099999e-01,5.717979146562669193e+05
1.424440143429770156e-01,5.714841805521218339e+05
1.429403349504430043e-01,5.711714699642589549e+05
1.434366555579099922e-01,5.708598800155769568e+05
1.439329761653770079e-01,5.705498059991914779e+05
1.444292967728439958e-01,5.702424513598533813e+05
1.449256173803110115e-01,5.699395606510086218e+05
1.454219379877779994e-01,5.696418902494979557e+05
1.459182585952439881e-01,5.693481472038815264e+05
1.464145792027110038e-01,5.690554804469118826e+05
1.469108998101779917e-01,5.687611771271413891e+05
1.474072204176450074e-01,5.684631538464032346e+05
1.479035410251119953e-01,5.681603112030350603e+05
1.483998616325789832e-01,5.678530481440342264e+05
1.488961822400449997e-01,5.675428641910578590e+05
1.493925028475119876e-01,5.672306350794852478e+05
1.498888234549790033e-01,5.669175971894927789e+05
1.503851440624459912e-01,5.666060463865995407e+05
1.508814646699129791e-01,5.662986597084812820e+05
1.513777852773800225e-01,5.659965719176718267e+05
1.518741058848470105e-01,5.656985863124839962e+05
1.523704264923129992e-01,5.654030263027115725e+05
1.528667470997800149e-01,5.651100801114813657e+05
1.533630677072470028e-01,5.648221995989484712e+05
1.538593883147140184e-01,5.645405218419107841e+05
1.543557089221810064e-01,5.642739419696892146e+05
1.548520295296480220e-01,5.640085714830252109e+05
1.553483501371140107e-01,5.637492209898207802e+05
1.558446707445809987e-01,5.634930364889713237e+05
1.563409913520480143e-01,5.632376664768018527e+05
1.568373119595150023e-01,5.629820650095602032e+05
1.573336325669820179e-01,5.627259709669188596e+05
1.578299531744490058e-01,5.624698762042802991e+05
1.583262737819150223e-01,5.622148939420835814e+05
1.588225943893820102e-01,5.619622814320694888e+05
1.593189149968489982e-01,5.617129521379184444e+05
1.598152356043160138e-01,5.614672127777239075e+05
1.603115562117830017e-01,5.612248399110299069e+05
1.608078768192499897e-01,5.609853886425656965e+05
1.613041974267160061e-01,5.607484156970315380e+05
1.618005180341829941e-01,5.605137353786975145e+05
1.622968386416500097e-01,5.602814398421457736e+05
1.627931592491169976e-01,5.600513697751882719e+05
1.632894798565839856e-01,5.598224451284084935e+05
1.637858004640510012e-01,5.595929441811984871e+05
1.642821210715179892e-01,5.593620155055361101e+05
1.647784416789840056e-01,5.591302479254825739e+05
1.652747622864509935e-01,5.588999343463758705e+05
1.657710828939180092e-01,5.586702623873710399e+05
1.662674035013849971e-01,5.584402124819621677e+05
1.667637241088519851e-01,5.582080783531047637e+05
1.672600447163190007e-01,5.579713756786056329e+05
1.677563653237849894e-01,5.577285738751700846e+05
1.682526859312520051e-01,5.574779288933589123e+05
1.687490065387189930e-01,5.572182432233947329e+05
1.692453271461860087e-01,5.569561389626624295e+05
1.697416477536530244e-01,5.566882441515902756e+05
1.702379683611200123e-01,5.564155338759381557e+05
1.707342889685860010e-01,5.561393582328010816e+05
1.712306095760530167e-01,5.558606186505267397e+05
1.717269301835200046e-01,5.555802228913916042e+05
1.722232507909870203e-01,5.552991416180776432e+05
1.727195713984540082e-01,5.550183415214163251e+05
1.732158920059209961e-01,5.547384506640438922e+05
1.737122126133880118e-01,5.544597051949207671e+05
1.742085332208540005e-01,5.541820936300574103e+05
1.747048538283210162e-01,5.539056002517086454e+05
1.752011744357880041e-01,5.536303444909381215e+05
1.756974950432550198e-01,5.533565558095794404e+05
1.761938156507220077e-01,5.530845155925034778e+05
1.766901362581889956e-01,5.528144124268054729e+05
1.771864568656550121e-01,5.525464195370973321e+05
1.776827774731220000e-01,5.522806297592439223e+05
1.781790980805890157e-01,5.520172296378612518e+05
1.786754186880560036e-01,5.517564964739156421e+05
1.791717392955229915e-01,5.514986705133554060e+05
1.796680599029900072e-01,5.512439220051289303e+05
1.801643805104569951e-01,5.509923507326568943e+05
1.806607011179230116e-01,5.507439893463160843e+05
1.811570217253899995e-01,5.504988263314734213e+05
1.816533423328569874e-01,5.502568299929159693e+05
1.821496629403240031e-01,5.500178395279843826e+05
1.826459835477909910e-01,5.497817431106033036e+05
1.831423041552579789e-01,5.495484904286809033e+05
1.836386247627239954e-01,5.493181900913807331e+05
1.841349453701909833e-01,5.490905613181587541e+05
1.846312659776579990e-01,5.488667473259668332e+05
1.851275865851249869e-01,5.486449629036830738e+05
1.856239071925920026e-01,5.484255997652269434e+05
1.861202278000590182e-01,5.482096018187484005e+05
1.866165484075249792e-01,5.479979788513946114e+05
1.871128690149919949e-01,5.477920944013636326e+05
1.876091896224590105e-01,5.475927096303142607e+05
1.881055102299260262e-01,5.473990716959607089e+05
1.886018308373930141e-01,5.472088704411099898e+05
1.890981514448600020e-01,5.470188723061115015e+05
1.895944720523260185e-01,5.468260243110251613e+05
1.900907926597930064e-01,5.466285861649098806e+05
1.905871132672600221e-01,5.464253811173924478e+05
1.910834338747270100e-01,5.462199811015988234e+05
1.915797544821939979e-01,5.460024712956686271e+05
1.920760750896610136e-01,5.457854596154208994e+05
1.925723956971280015e-01,5.455642486144526629e+05
1.930687163045940180e-01,5.453395025890135439e+05
1.935650369120610059e-01,5.451128687967682490e+05
1.940613575195279938e-01,5.448859966558747692e+05
1.945576781269950095e-01,5.446598446900586132e+05
1.950539987344619974e-01,5.444346736877099611e+05
1.955503193419290131e-01,5.442102522304324666e+05
1.960466399493950018e-01,5.439863564929427812e+05
1.965429605568619897e-01,5.437632369618052617e+05
1.970392811643290054e-01,5.435418387392121367e+05
1.975356017717959933e-01,5.433239730524906190e+05
