# x(m), q(W/m2)
0.000000000000000000e+00,4.504596998845743947e+06
4.963206074668159631e-04,3.421876532963691745e+06
9.926412149336319261e-04,2.491323780452094506e+06
1.488961822400450058e-03,1.986002190365654184e+06
1.985282429867259949e-03,1.702475287566463230e+06
2.481603037334080032e-03,1.513154332343825139e+06
2.977923644800890141e-03,1.376269062242483953e+06
3.474244252267710224e-03,1.270277664331348380e+06
3.970564859734530307e-03,1.184876906242368277e+06
4.466885467201340415e-03,1.114606895138656488e+06
4.963206074668160064e-03,1.056565250108716311e+06
5.459526682134970173e-03,1.008158748949125060e+06
5.955847289601789822e-03,9.672867730014972622e+05
6.452167897068599930e-03,9.338334501293771900e+05
6.948488504535420447e-03,9.090524397083114600e+05
7.444809112002240097e-03,8.968962065779870609e+05
7.941129719469050205e-03,9.009321377204773016e+05
8.437450326935869854e-03,9.162104140771400416e+05
8.933770934402680830e-03,9.410162213549802545e+05
9.430091541869500479e-03,9.672272352553672390e+05
9.926412149336320129e-03,9.904398356729419902e+05
1.042273275680309988e-02,1.007812113061735407e+06
1.091905336427000106e-02,1.016602604283665656e+06
1.141537397173679989e-02,1.019332176490595215e+06
1.191169457920360046e-02,1.017225960378959775e+06
1.240801518667040103e-02,1.013234491565706325e+06
1.290433579413719986e-02,1.007426385677323211e+06
1.340065640160400043e-02,1.000766791260006954e+06
1.389697700907089987e-02,9.932161119647247251e+05
1.439329761653770044e-02,9.844728092245780863e+05
1.488961822400450101e-02,9.759076180584629765e+05
1.538593883147129984e-02,9.690559782662428916e+05
1.588225943893810041e-02,9.620446136697246693e+05
1.637858004640490098e-02,9.554682862684159772e+05
1.687490065387180216e-02,9.492063472659644904e+05
1.737122126133860273e-02,9.424430211854025256e+05
1.786754186880539982e-02,9.353046849892532919e+05
1.836386247627220039e-02,9.277686759191536112e+05
1.886018308373900096e-02,9.207643242633527843e+05
1.935650369120579806e-02,9.153098278679089854e+05
1.985282429867260209e-02,9.105074195146590937e+05
2.034914490613949981e-02,9.058836207850876963e+05
2.084546551360630037e-02,9.013378785421178909e+05
2.134178612107310094e-02,8.969699644340818049e+05
2.183810672853989804e-02,8.925242895991415717e+05
2.233442733600670208e-02,8.875849038834326202e+05
2.283074794347350264e-02,8.822236928880026098e+05
2.332706855094029974e-02,8.764775922064625192e+05
2.382338915840710031e-02,8.711148737714857562e+05
2.431970976587399802e-02,8.667812072675672825e+05
2.481603037334080206e-02,8.631153218237351393e+05
2.531235098080760262e-02,8.600603403126866324e+05
2.580867158827439972e-02,8.573829382528370479e+05
2.630499219574120029e-02,8.545992519398342120e+05
2.680131280320800086e-02,8.514733732244309504e+05
2.729763341067479795e-02,8.482224918157816865e+05
2.779395401814170261e-02,8.448539420017903903e+05
2.829027462560849970e-02,8.413251981638274156e+05
2.878659523307530027e-02,8.375557179077325854e+05
2.928291584054210084e-02,8.334677328539886512e+05
2.977923644800889794e-02,8.293150780540114501e+05
3.027555705547570197e-02,8.255189974248050712e+05
3.077187766294250254e-02,8.225059897969122976e+05
3.126819827040940025e-02,8.197000578265135409e+05
3.176451887787620082e-02,8.172272062083340716e+05
3.226083948534300139e-02,8.150872589739261894e+05
3.275716009280980195e-02,8.132730427977099316e+05
3.325348070027659558e-02,8.115245400330841076e+05
3.374980130774339615e-02,8.096206514352065278e+05
3.424612191521020366e-02,8.073404290940085193e+05
3.474244252267710137e-02,8.049699416390877450e+05
3.523876313014390194e-02,8.023336704085294623e+05
3.573508373761070250e-02,7.993146889086148003e+05
3.623140434507750307e-02,7.963930358651502756e+05
3.672772495254430364e-02,7.937929450907445280e+05
3.722404556001109727e-02,7.911818568647515494e+05
3.772036616747789783e-02,7.884774703307864256e+05
3.821668677494469840e-02,7.856756876644301228e+05
3.871300738241159611e-02,7.831078467317523900e+05
3.920932798987840362e-02,7.808509484207900241e+05
3.970564859734520419e-02,7.787500920331461821e+05
4.020196920481200475e-02,7.768681494776778854e+05
4.069828981227880532e-02,7.750896518559255637e+05
4.119461041974559895e-02,7.732993694400766399e+05
4.169093102721239952e-02,7.715447085861058440e+05
4.218725163467920009e-02,7.698102039240166778e+05
4.268357224214609780e-02,7.680188439332004637e+05
4.317989284961289836e-02,7.661770405635966454e+05
4.367621345707969893e-02,7.641863064403949538e+05
4.417253406454649950e-02,7.621046112762449775e+05
4.466885467201330701e-02,7.600416660729047144e+05
4.516517527948010063e-02,7.581372059593752492e+05
4.566149588694700528e-02,7.563208915462103905e+05
4.615781649441379891e-02,7.544534106465156656e+05
4.665413710188059948e-02,7.524791343550219899e+05
4.715045770934740005e-02,7.504541396839957451e+05
4.764677831681420062e-02,7.488050835596174002e+05
4.814309892428100118e-02,7.472449272448458942e+05
4.863941953174780175e-02,7.457347693171838764e+05
4.913574013921469946e-02,7.442216680628625909e+05
4.963206074668150697e-02,7.426714450981670525e+05
5.012838135414830060e-02,7.411324307301647495e+05
5.062470196161510116e-02,7.396463224111150485e+05
5.112102256908190173e-02,7.382163624356918735e+05
5.161734317654870230e-02,7.368195242816049140e+05
5.211366378401550287e-02,7.354271572934844298e+05
5.260998439148230343e-02,7.340418994100359268e+05
5.310630499894920115e-02,7.327190450813081115e+05
5.360262560641600171e-02,7.313023533956531901e+05
5.409894621388279534e-02,7.299240121854217723e+05
5.459526682134959591e-02,7.285022667482024990e+05
5.509158742881640342e-02,7.271101100414003013e+05
5.558790803628320398e-02,7.257832239880256820e+05
5.608422864375000455e-02,7.245070051929628244e+05
5.658054925121690226e-02,7.232649117503301241e+05
5.707686985868370283e-02,7.220561399674119893e+05
5.757319046615050340e-02,7.208756137072042329e+05
5.806951107361729703e-02,7.197089583412035136e+05
5.856583168108409759e-02,7.185598912359760143e+05
5.906215228855089816e-02,7.174553759836826939e+05
5.955847289601769873e-02,7.164179784273826517e+05
6.005479350348460338e-02,7.153666382579134079e+05
6.055111411095140395e-02,7.142697070548160700e+05
6.104743471841820451e-02,7.131077184734502807e+05
6.154375532588500508e-02,7.119086823271110188e+05
6.204007593335180565e-02,7.107848686155834002e+05
6.253639654081860622e-02,7.096824957268409198e+05
6.303271714828539984e-02,7.086463460461446084e+05
6.352903775575220735e-02,7.076457095404767897e+05
6.402535836321900098e-02,7.066164756593405036e+05
6.452167897068590563e-02,7.055334204032610869e+05
6.501799957815269926e-02,7.044154325182467001e+05
6.551432018561949289e-02,7.032887363139188383e+05
6.601064079308630039e-02,7.021743589633408701e+05
6.650696140055309402e-02,7.010869712196193868e+05
6.700328200801990153e-02,7.000279220175073715e+05
6.749960261548679230e-02,6.989862056449120864e+05
6.799592322295361368e-02,6.979579062385541620e+05
6.849224383042040731e-02,6.969582090737728868e+05
6.898856443788720094e-02,6.959985500514799496e+05
6.948488504535400845e-02,6.950829819437102415e+05
6.998120565282080208e-02,6.941940683178683976e+05
7.047752626028760958e-02,6.932743169554374181e+05
7.097384686775450036e-02,6.923521487713895040e+05
7.147016747522130786e-02,6.914812553988413420e+05
7.196648808268810149e-02,6.906689440349821234e+05
7.246280869015490900e-02,6.899405996404348407e+05
7.295912929762170263e-02,6.892757101522893645e+05
7.345544990508849625e-02,6.886420901364706224e+05
7.395177051255530376e-02,6.880049172856581863e+05
7.444809112002219453e-02,6.873498708627249580e+05
7.494441172748900204e-02,6.866851230620315764e+05
7.544073233495579567e-02,6.860173092319165589e+05
7.593705294242260317e-02,6.853453217596866889e+05
7.643337354988939680e-02,6.846732362172234571e+05
7.692969415735619043e-02,6.840043495413784403e+05
7.742601476482299794e-02,6.833464405152774416e+05
7.792233537228988871e-02,6.827015543173863553e+05
7.841865597975659907e-02,6.820623470657762373e+05
7.891497658722350372e-02,6.814045727090487489e+05
7.941129719469031123e-02,6.806979955798591254e+05
7.990761780215710486e-02,6.799321409855298698e+05
8.040393840962391236e-02,6.791311917412381154e+05
8.090025901709070599e-02,6.782982128269132227e+05
8.139657962455761064e-02,6.774575917153318878e+05
8.189290023202440427e-02,6.766251977587400470e+05
8.238922083949119790e-02,6.757964832019598689e+05
8.288554144695800541e-02,6.749723512814411661e+05
8.338186205442479904e-02,6.741246576226013713e+05
8.387818266189160654e-02,6.732349012633165112e+05
8.437450326935840017e-02,6.723133630768159637e+05
8.487082387682519380e-02,6.713710137747478439e+05
8.536714448429200131e-02,6.704243643144813832e+05
8.586346509175889208e-02,6.694864952127006836e+05
8.635978569922569958e-02,6.685641115712618921e+05
8.685610630669249321e-02,6.676679970008101081e+05
8.735242691415930072e-02,6.667911712066141190e+05
8.784874752162609435e-02,6.659219484422780806e+05
8.834506812909290185e-02,6.650546349347034702e+05
8.884138873655979263e-02,6.641903708028617548e+05
8.933770934402661401e-02,6.633480346818545368e+05
8.983402995149340764e-02,6.625540694084893912e+05
9.033035055896020127e-02,6.617951555351142306e+05
9.082667116642700877e-02,6.610714861338670598e+05
9.132299177389380240e-02,6.603675994977973169e+05
9.181931238136060991e-02,6.596687627340708859e+05
9.231563298882740354e-02,6.589576213533165865e+05
9.281195359629430819e-02,6.582302857195972465e+05
9.330827420376110182e-02,6.575812716592543293e+05
9.380459481122790932e-02,6.570040171716288896e+05
9.430091541869470295e-02,6.564849923895543907e+05
9.479723602616149658e-02,6.560116124541589525e+05
9.529355663362830409e-02,6.555597120208144188e+05
9.578987724109509772e-02,6.551109732967145974e+05
9.628619784856190522e-02,6.546517474847001722e+05
9.678251845602879599e-02,6.541708243064659182e+05
9.727883906349560350e-02,6.536722325957268476e+05
9.777515967096239713e-02,6.531705740594392410e+05
9.827148027842919076e-02,6.526700267524319934e+05
9.876780088589599826e-02,6.521722292752590729e+05
9.926412149336279189e-02,6.516766506858377252e+05
9.976044210082971042e-02,6.511824988121895585e+05
1.002567627082959906e-01,6.506946105590972584e+05
1.007530833157630062e-01,6.502141376134250313e+05
1.012494039232300080e-01,6.497424078529294347e+05
1.017457245306970098e-01,6.492783599929515040e+05
1.022420451381639978e-01,6.488147021601517918e+05
1.027383657456309995e-01,6.483484154813861242e+05
1.032346863530970021e-01,6.478744335032334784e+05
1.037310069605640039e-01,6.473845441931717796e+05
1.042273275680310057e-01,6.468721757743881317e+05
1.047236481754980075e-01,6.463336878743299749e+05
1.052199687829649954e-01,6.457696486156571191e+05
1.057162893904309980e-01,6.451885313203840051e+05
1.062126099978979998e-01,6.445984119730066741e+05
1.067089306053650016e-01,6.440077588593299733e+05
1.072052512128320034e-01,6.434210183004252613e+05
1.077015718202989913e-01,6.428380150453489041e+05
1.081978924277649939e-01,6.422517208028351888e+05
1.086942130352319957e-01,6.416519598910192726e+05
1.091905336426989975e-01,6.410237016068813391e+05
1.096868542501659993e-01,6.403737273996386211e+05
1.101831748576330011e-01,6.397073516360718058e+05
1.106794954651000029e-01,6.390347824535584077e+05
1.111758160725659916e-01,6.383622532989063766e+05
1.116721366800330073e-01,6.376939020781498402e+05
1.121684572875000091e-01,6.370335631650687428e+05
1.126647778949670109e-01,6.363834990362788085e+05
1.131610985024339988e-01,6.357461486593978480e+05
1.136574191099000014e-01,6.351214587008503731e+05
1.141537397173670032e-01,6.345074429132767254e+05
1.146500603248340050e-01,6.338986434690915048e+05
1.151463809323010068e-01,6.332906274638009490e+05
1.156427015397679947e-01,6.326837028217333136e+05
1.161390221472339973e-01,6.320833297874677228e+05
1.166353427547009991e-01,6.315034795009660302e+05
1.171316633621680009e-01,6.309443928084126674e+05
1.176279839696350027e-01,6.304028206752947299e+05
1.181243045771019906e-01,6.298741254483622033e+05
1.186206251845689924e-01,6.293586963424489368e+05
1.191169457920349950e-01,6.288517745764969150e+05
1.196132663995019968e-01,6.283454551624456653e+05
1.201095870069689986e-01,6.278260224084414076e+05
1.206059076144360143e-01,6.272848679958339781e+05
1.211022282219030022e-01,6.267310027458947152e+05
1.215985488293689909e-01,6.262005633013179759e+05
1.220948694368360066e-01,6.257160911289437208e+05
1.225911900443030084e-01,6.253109370085804258e+05
1.230875106517700102e-01,6.249226439914187649e+05
1.235838312592369981e-01,6.245519609271460213e+05
1.240801518667039999e-01,6.241854745468272595e+05
1.245764724741700025e-01,6.238255840442309855e+05
1.250727930816370181e-01,6.234707951083707158e+05
1.255691136891040061e-01,6.231206179531560047e+05
1.260654342965709940e-01,6.227706623347593704e+05
1.265617549040380097e-01,6.224191141833516303e+05
1.270580755115039984e-01,6.220663202240455430e+05
1.275543961189710140e-01,6.217178664579114411e+05
1.280507167264380020e-01,6.213806916420594789e+05
1.285470373339049899e-01,6.210508061196048511e+05
1.290433579413720055e-01,6.207254500515741529e+05
1.295396785488389935e-01,6.204026073250037152e+05
1.300359991563050099e-01,6.200810858283720445e+05
1.305323197637719979e-01,6.197613162609627470e+05
1.310286403712389858e-01,6.194460980948397191e+05
1.315249609787060014e-01,6.191373970931371441e+05
1.320212815861729894e-01,6.188334768752324162e+05
1.325176021936399773e-01,6.185298489900649292e+05
1.330139228011069930e-01,6.182227541265385225e+05
1.335102434085729817e-01,6.179116849691686220e+05
1.340065640160399973e-01,6.175987206511619734e+05
1.345028846235069853e-01,6.172853521092350129e+05
1.349992052309740287e-01,6.169698976590553066e+05
1.354955258384410166e-01,6.166494066250707256e+05
1.359918464459080045e-01,6.163201899219488259e+05
1.364881670533740210e-01,6.159782080661581131e+05
1.369844876608410089e-01,6.156189772004752886e+05
1.374808082683080246e-01,6.152404876163903391e+05
1.379771288757750125e-01,6.148438124684542418e+05
1.384734494832420004e-01,6.144359959708260139e+05
1.389697700907090161e-01,6.140209503436590312e+05
1.394660906981750048e-01,6.135997817015598994e+05
1.399624113056420205e-01,6.131736945440719137e+05
1.404587319131090084e-01,6.127428525092398049e+05
1.409550525205759963e-01,6.123059257360815536e+05
1.414513731280430120e-01,6.118582961990748299e+05
1.419476937355099999e-01,6.113962858282764209e+05
1.424440143429770156e-01,6.109193628938664915e+05
1.429403349504430043e-01,6.104281510618957691e+05
1.434366555579099922e-01,6.099259795374780660e+05
1.439329761653770079e-01,6.094205186705648666e+05
1.444292967728439958e-01,6.089169649892572779e+05
1.449256173803110115e-01,6.084170996389928041e+05
1.454219379877779994e-01,6.079208164221965708e+05
1.459182585952439881e-01,6.074274778281303588e+05
1.464145792027110038e-01,6.069370398469025968e+05
1.469108998101779917e-01,6.064509531280719675e+05
1.474072204176450074e-01,6.059716665532710031e+05
1.479035410251119953e-01,6.055009114788981387e+05
1.483998616325789832e-01,6.050378142955851508e+05
1.488961822400449997e-01,6.045802508901425172e+05
1.493925028475119876e-01,6.041253843194090296e+05
1.498888234549790033e-01,6.036708727490444435e+05
1.503851440624459912e-01,6.032175521230588201e+05
1.508814646699129791e-01,6.027699680402772501e+05
1.513777852773800225e-01,6.023335747083609458e+05
1.518741058848470105e-01,6.019106288227561163e+05
1.523704264923129992e-01,6.014992407110485947e+05
1.528667470997800149e-01,6.010970142579649109e+05
1.533630677072470028e-01,6.007027525481791236e+05
1.538593883147140184e-01,6.003161764198713936e+05
1.543557089221810064e-01,5.999383039143451024e+05
1.548520295296480220e-01,5.995715091167200590e+05
1.553483501371140107e-01,5.992138659833743004e+05
1.558446707445809987e-01,5.988594400349661009e+05
1.563409913520480143e-01,5.984997860251130769e+05
1.568373119595150023e-01,5.981287744798539206e+05
1.573336325669820179e-01,5.977474002407111693e+05
1.578299531744490058e-01,5.973683053802991053e+05
1.583262737819150223e-01,5.970052958155926317e+05
1.588225943893820102e-01,5.966985522449668497e+05
1.593189149968489982e-01,5.964181836905258242e+05
1.598152356043160138e-01,5.961708303386156913e+05
1.603115562117830017e-01,5.959588119465222117e+05
1.608078768192499897e-01,5.957684277605531970e+05
1.613041974267160061e-01,5.955854177226078464e+05
1.618005180341829941e-01,5.953999503760449588e+05
1.622968386416500097e-01,5.952084142055596458e+05
1.627931592491169976e-01,5.950099533243412152e+05
1.632894798565839856e-01,5.948039815577331465e+05
1.637858004640510012e-01,5.945912779334126972e+05
1.642821210715179892e-01,5.943733426780541195e+05
1.647784416789840056e-01,5.941501791188952047e+05
1.652747622864509935e-01,5.939238834713881370e+05
1.657710828939180092e-01,5.936971223691169871e+05
1.662674035013849971e-01,5.934712836163007887e+05
1.667637241088519851e-01,5.932470838629544014e+05
1.672600447163190007e-01,5.930236952719016699e+05
1.677563653237849894e-01,5.927991224041511305e+05
1.682526859312520051e-01,5.925714693483933806e+05
1.687490065387189930e-01,5.923390303538632579e+05
1.692453271461860087e-01,5.921021846965989098e+05
1.697416477536530244e-01,5.918602010697526857e+05
1.702379683611200123e-01,5.916148272513431730e+05
1.707342889685860010e-01,5.913686904958207160e+05
1.712306095760530167e-01,5.911228764500166290e+05
1.717269301835200046e-01,5.908760426500510657e+05
1.722232507909870203e-01,5.906262841768690851e+05
1.727195713984540082e-01,5.903718584478675621e+05
1.732158920059209961e-01,5.901122611109530553e+05
1.737122126133880118e-01,5.898483685693270527e+05
1.742085332208540005e-01,5.895823383886095835e+05
1.747048538283210162e-01,5.893158232632734580e+05
1.752011744357880041e-01,5.890493787283083657e+05
1.756974950432550198e-01,5.887823462322525447e+05
1.761938156507220077e-01,5.885144924137109192e+05
1.766901362581889956e-01,5.882438985725165112e+05
1.771864568656550121e-01,5.879683279233340872e+05
1.776827774731220000e-01,5.876835185822517378e+05
1.781790980805890157e-01,5.873882717608670937e+05
1.786754186880560036e-01,5.870819437198046362e+05
1.791717392955229915e-01,5.867658153237800580e+05
1.796680599029900072e-01,5.864436042599275243e+05
1.801643805104569951e-01,5.861197909281586763e+05
1.806607011179230116e-01,5.857981596694857581e+05
1.811570217253899995e-01,5.854797521360844839e+05
1.816533423328569874e-01,5.851631479167806683e+05
1.821496629403240031e-01,5.848470672338507138e+05
1.826459835477909910e-01,5.845303846698172856e+05
1.831423041552579789e-01,5.842120656700570835e+05
1.836386247627239954e-01,5.838915700603674632e+05
1.841349453701909833e-01,5.835675419290383579e+05
1.846312659776579990e-01,5.832379112642258406e+05
1.851275865851249869e-01,5.829016324407949578e+05
1.856239071925920026e-01,5.825598416181446519e+05
1.861202278000590182e-01,5.822156435250448994e+05
1.866165484075249792e-01,5.818726780452282401e+05
1.871128690149919949e-01,5.815328122461640742e+05
1.876091896224590105e-01,5.811959757997888373e+05
1.881055102299260262e-01,5.808616301016315119e+05
1.886018308373930141e-01,5.805287032342236489e+05
1.890981514448600020e-01,5.801961616638435517e+05
1.895944720523260185e-01,5.798633402581834234e+05
1.900907926597930064e-01,5.795303439817108447e+05
1.905871132672600221e-01,5.791973463687343756e+05
1.910834338747270100e-01,5.788666913132893387e+05
1.915797544821939979e-01,5.785386604599180864e+05
1.920760750896610136e-01,5.782124336160360835e+05
1.925723956971280015e-01,5.778880531430761330e+05
1.930687163045940180e-01,5.775652659841026179e+05
1.935650369120610059e-01,5.772433849180372199e+05
1.940613575195279938e-01,5.769215713644071948e+05
1.945576781269950095e-01,5.765993550957220141e+05
1.950539987344619974e-01,5.762766453610862372e+05
1.955503193419290131e-01,5.759549390923791798e+05
1.960466399493950018e-01,5.756371983795210253e+05
1.965429605568619897e-01,5.753256824877915205e+05
1.970392811643290054e-01,5.750215403756764717e+05
1.975356017717959933e-01,5.747232896117363125e+05
