x (mm),Q (W/m2)
0,8.04E+06
0.0994522,6.06E+06
0.199899,3.49E+06
0.30135,2.65E+06
0.403816,2.18E+06
0.507306,1.87E+06
0.611831,1.65E+06
0.717402,1.48E+06
0.824028,1.35E+06
0.931721,1.25E+06
1.04049,1.16E+06
1.15035,1.09E+06
1.2613,1.03E+06
1.37337,9.76E+05
1.48655,9.29E+05
1.60087,8.87E+05
1.71633,8.50E+05
1.83295,8.17E+05
1.95073,7.87E+05
2.06969,7.59E+05
2.18984,7.34E+05
2.31119,7.11E+05
2.43375,6.90E+05
2.55754,6.70E+05
2.68257,6.51E+05
2.80885,6.34E+05
2.93639,6.17E+05
3.0652,6.02E+05
3.19531,5.88E+05
3.32671,5.74E+05
3.45943,5.61E+05
3.59348,5.49E+05
3.72887,5.37E+05
3.86561,5.26E+05
4.00372,5.16E+05
4.14321,5.06E+05
4.28409,4.96E+05
4.42638,4.87E+05
4.5701,4.79E+05
4.71525,4.70E+05
4.86186,4.62E+05
5.00993,4.54E+05
5.15948,4.47E+05
5.31053,4.40E+05
5.46308,4.33E+05
5.61717,4.26E+05
5.77279,4.20E+05
5.92997,4.14E+05
6.08872,4.08E+05
6.24906,4.02E+05
6.411,3.96E+05
6.57457,3.91E+05
6.73976,3.86E+05
6.90661,3.80E+05
7.07513,3.76E+05
7.24534,3.71E+05
7.41724,3.66E+05
7.59087,3.62E+05
7.76623,3.57E+05
7.94334,3.53E+05
8.12223,3.49E+05
8.3029,3.45E+05
8.48538,3.41E+05
8.66969,3.37E+05
8.85584,3.34E+05
9.04385,3.30E+05
9.23374,3.27E+05
9.42553,3.23E+05
9.61924,3.20E+05
9.81488,3.17E+05
10.0125,3.14E+05
10.2121,3.11E+05
10.4136,3.08E+05
10.6172,3.05E+05
10.8228,3.02E+05
11.0305,3.00E+05
11.2403,2.97E+05
11.4521,2.95E+05
11.6661,2.92E+05
11.8822,2.90E+05
12.1005,2.88E+05
12.321,2.86E+05
12.5436,2.84E+05
12.7685,2.82E+05
12.9956,2.80E+05
13.2251,2.78E+05
13.4568,2.76E+05
13.6908,2.74E+05
13.9271,2.72E+05
14.1659,2.71E+05
14.407,2.69E+05
14.6505,2.68E+05
14.8964,2.66E+05
15.1449,2.65E+05
15.3958,2.63E+05
15.6492,2.62E+05
15.9051,2.61E+05
16.1636,2.60E+05
16.4247,2.58E+05
16.6884,2.57E+05
16.9547,2.56E+05
17.2237,2.55E+05
17.4954,2.54E+05
17.7698,2.53E+05
18.047,2.52E+05
18.3269,2.51E+05
18.6096,2.50E+05
18.8952,2.49E+05
19.1836,2.49E+05
19.4749,2.48E+05
19.7691,2.47E+05
20.0662,2.46E+05
20.3663,2.45E+05
20.6695,2.45E+05
20.9756,2.44E+05
21.2848,2.43E+05
21.5971,2.43E+05
21.9125,2.42E+05
22.2311,2.41E+05
22.5529,2.40E+05
22.8779,2.40E+05
23.2061,2.39E+05
23.5376,2.38E+05
23.8724,2.38E+05
24.2106,2.37E+05
24.5522,2.36E+05
24.8971,2.36E+05
25.2456,2.35E+05
25.5975,2.35E+05
25.9529,2.34E+05
26.3119,2.33E+05
26.6744,2.33E+05
27.0406,2.32E+05
27.4105,2.31E+05
27.7841,2.31E+05
28.1613,2.30E+05
28.5424,2.29E+05
28.9273,2.28E+05
29.316,2.28E+05
29.701,2.27E+05
30.086,2.26E+05
30.471,2.25E+05
30.8559,2.25E+05
31.2409,2.24E+05
31.6259,2.23E+05
32.0109,2.22E+05
32.3959,2.22E+05
32.7808,2.21E+05
33.1658,2.20E+05
33.5508,2.19E+05
33.9358,2.19E+05
34.3207,2.18E+05
34.7057,2.17E+05
35.0907,2.17E+05
35.4757,2.16E+05
35.8607,2.15E+05
36.2456,2.15E+05
36.6306,2.14E+05
37.0156,2.13E+05
37.4006,2.13E+05
37.7856,2.12E+05
38.1705,2.11E+05
38.5555,2.11E+05
38.9405,2.10E+05
39.3255,2.10E+05
39.7105,2.09E+05
40.0954,2.08E+05
40.4804,2.08E+05
40.8654,2.07E+05
41.2504,2.07E+05
41.6354,2.06E+05
42.0203,2.06E+05
42.4053,2.05E+05
42.7903,2.05E+05
43.1753,2.04E+05
43.5603,2.03E+05
43.9452,2.03E+05
44.3302,2.02E+05
44.7152,2.02E+05
45.1002,2.02E+05
45.4852,2.01E+05
45.8701,2.01E+05
46.2551,2.00E+05
46.6401,2.00E+05
47.0251,1.99E+05
47.4101,1.99E+05
47.795,1.98E+05
48.18,1.98E+05
48.565,1.97E+05
48.95,1.97E+05
49.335,1.96E+05
49.7199,1.96E+05
50.1049,1.96E+05
50.4899,1.95E+05
50.8749,1.95E+05
51.2599,1.94E+05
51.6448,1.94E+05
52.0298,1.94E+05
52.4148,1.93E+05
52.7998,1.93E+05
53.1848,1.92E+05
53.5697,1.92E+05
53.9547,1.92E+05
54.3397,1.91E+05
54.7247,1.91E+05
55.1097,1.91E+05
55.4946,1.90E+05
55.8796,1.90E+05
56.2646,1.90E+05
56.6496,1.89E+05
57.0346,1.89E+05
57.4195,1.89E+05
57.8045,1.88E+05
58.1895,1.88E+05
58.5745,1.88E+05
58.9595,1.87E+05
59.3444,1.87E+05
59.7294,1.87E+05
60.1144,1.86E+05
60.4994,1.86E+05
60.8843,1.86E+05
61.2693,1.86E+05
61.6543,1.85E+05
62.0393,1.85E+05
62.4243,1.85E+05
62.8092,1.84E+05
63.1942,1.84E+05
63.5792,1.84E+05
63.9642,1.84E+05
64.3492,1.83E+05
64.7341,1.83E+05
65.1191,1.83E+05
65.5041,1.83E+05
65.8891,1.82E+05
66.2741,1.82E+05
66.659,1.82E+05
67.044,1.81E+05
67.429,1.81E+05
67.814,1.81E+05
68.199,1.81E+05
68.5839,1.81E+05
68.9689,1.80E+05
69.3539,1.80E+05
69.7389,1.80E+05
70.1239,1.80E+05
70.5088,1.79E+05
70.8938,1.79E+05
71.2788,1.79E+05
71.6638,1.79E+05
72.0488,1.78E+05
72.4337,1.78E+05
72.8187,1.78E+05
73.2037,1.78E+05
73.5887,1.78E+05
73.9737,1.77E+05
74.3586,1.77E+05
74.7436,1.77E+05
75.1286,1.77E+05
75.5136,1.77E+05
75.8986,1.76E+05
76.2835,1.76E+05
76.6685,1.76E+05
77.0535,1.76E+05
77.4385,1.76E+05
77.8235,1.75E+05
78.2084,1.75E+05
78.5934,1.75E+05
78.9784,1.75E+05
79.3634,1.75E+05
79.7484,1.75E+05
80.1333,1.74E+05
80.5183,1.74E+05
80.9033,1.74E+05
81.2883,1.74E+05
81.6732,1.74E+05
82.0582,1.73E+05
82.4432,1.73E+05
82.8282,1.73E+05
83.2132,1.73E+05
83.5982,1.73E+05
83.9831,1.73E+05
84.3681,1.72E+05
84.7531,1.72E+05
85.1381,1.72E+05
85.523,1.72E+05
85.908,1.72E+05
86.293,1.72E+05
86.678,1.71E+05
87.063,1.71E+05
87.4479,1.71E+05
87.8329,1.71E+05
88.2179,1.71E+05
88.6029,1.71E+05
88.9879,1.71E+05
89.3728,1.70E+05
89.7578,1.70E+05
90.1428,1.70E+05
90.5278,1.70E+05
90.9128,1.70E+05
91.2977,1.70E+05
91.6827,1.69E+05
92.0677,1.69E+05
92.4527,1.69E+05
92.8377,1.69E+05
93.2226,1.69E+05
93.6076,1.69E+05
93.9926,1.69E+05
94.3776,1.69E+05
94.7626,1.68E+05
95.1475,1.68E+05
95.5325,1.68E+05
95.9175,1.68E+05
96.3025,1.68E+05
96.6875,1.68E+05
97.0724,1.68E+05
97.4574,1.67E+05
97.8424,1.67E+05
98.2274,1.67E+05
98.6124,1.67E+05
98.9973,1.67E+05
99.3823,1.67E+05
99.7673,1.67E+05
100.152,1.67E+05
100.537,1.66E+05
100.922,1.66E+05
101.307,1.66E+05
101.692,1.66E+05
102.077,1.66E+05
102.462,1.66E+05
102.847,1.66E+05
103.232,1.66E+05
103.617,1.65E+05
104.002,1.65E+05
104.387,1.65E+05
104.772,1.65E+05
105.157,1.65E+05
105.542,1.65E+05
105.927,1.65E+05
106.312,1.65E+05
106.697,1.65E+05
107.082,1.64E+05
107.467,1.64E+05
107.852,1.64E+05
108.237,1.64E+05
108.622,1.64E+05
109.007,1.64E+05
109.392,1.64E+05
109.777,1.64E+05
110.162,1.64E+05
110.547,1.63E+05
110.932,1.63E+05
111.317,1.63E+05
111.702,1.63E+05
112.087,1.63E+05
112.472,1.63E+05
112.857,1.63E+05
113.242,1.63E+05
113.627,1.63E+05
114.012,1.62E+05
114.397,1.62E+05
114.782,1.62E+05
115.166,1.62E+05
115.551,1.62E+05
115.936,1.62E+05
116.321,1.62E+05
116.706,1.62E+05
117.091,1.62E+05
117.476,1.62E+05
117.861,1.61E+05
118.246,1.61E+05
118.631,1.61E+05
119.016,1.61E+05
119.401,1.61E+05
119.786,1.61E+05
120.171,1.61E+05
120.556,1.61E+05
120.941,1.61E+05
121.326,1.61E+05
121.711,1.61E+05
122.096,1.60E+05
122.481,1.60E+05
122.866,1.60E+05
123.251,1.60E+05
123.636,1.60E+05
124.021,1.60E+05
124.406,1.60E+05
124.791,1.60E+05
125.176,1.60E+05
125.561,1.60E+05
125.946,1.60E+05
126.331,1.59E+05
126.716,1.59E+05
127.101,1.59E+05
127.486,1.59E+05
127.871,1.59E+05
128.256,1.59E+05
128.641,1.59E+05
129.026,1.59E+05
129.411,1.59E+05
129.796,1.59E+05
130.181,1.59E+05
130.566,1.58E+05
130.951,1.58E+05
131.336,1.58E+05
131.721,1.58E+05
132.106,1.58E+05
132.491,1.58E+05
132.876,1.58E+05
133.261,1.58E+05
133.646,1.58E+05
134.03,1.58E+05
134.415,1.58E+05
134.8,1.58E+05
135.185,1.58E+05
135.57,1.57E+05
135.955,1.57E+05
136.34,1.57E+05
136.725,1.57E+05
137.11,1.57E+05
137.495,1.57E+05
137.88,1.57E+05
138.265,1.57E+05
138.65,1.57E+05
139.035,1.57E+05
139.42,1.57E+05
139.805,1.57E+05
140.19,1.57E+05
140.575,1.56E+05
140.96,1.56E+05
141.345,1.56E+05
141.73,1.56E+05
142.115,1.56E+05
142.5,1.56E+05
142.885,1.56E+05
143.27,1.56E+05
143.655,1.56E+05
144.04,1.56E+05
144.425,1.56E+05
144.81,1.56E+05
145.195,1.56E+05
145.58,1.55E+05
145.965,1.55E+05
146.35,1.55E+05
146.735,1.55E+05
147.12,1.55E+05
147.505,1.55E+05
147.89,1.55E+05
148.275,1.55E+05
148.66,1.55E+05
149.045,1.55E+05
149.43,1.55E+05
149.815,1.55E+05
150.2,1.55E+05
150.585,1.55E+05
150.97,1.55E+05
151.355,1.54E+05
151.74,1.54E+05
152.125,1.54E+05
152.51,1.54E+05
152.894,1.54E+05
153.279,1.54E+05
153.664,1.54E+05
154.049,1.54E+05
154.434,1.54E+05
154.819,1.54E+05
155.204,1.54E+05
155.589,1.54E+05
155.974,1.54E+05
156.359,1.54E+05
156.744,1.54E+05
157.129,1.53E+05
157.514,1.53E+05
157.899,1.53E+05
158.284,1.53E+05
158.669,1.53E+05
159.054,1.53E+05
159.439,1.53E+05
159.824,1.53E+05
160.209,1.53E+05
160.594,1.53E+05
160.979,1.53E+05
161.364,1.53E+05
161.749,1.53E+05
162.134,1.53E+05
162.519,1.53E+05
162.904,1.53E+05
163.289,1.52E+05
163.674,1.52E+05
164.059,1.52E+05
164.444,1.52E+05
164.829,1.52E+05
165.214,1.52E+05
165.599,1.52E+05
165.984,1.52E+05
166.369,1.52E+05
166.754,1.52E+05
167.139,1.52E+05
167.524,1.52E+05
167.909,1.52E+05
168.294,1.52E+05
168.679,1.52E+05
169.064,1.52E+05
169.449,1.52E+05
169.834,1.52E+05
170.219,1.51E+05
170.604,1.51E+05
170.989,1.51E+05
171.374,1.51E+05
171.759,1.51E+05
172.143,1.51E+05
172.528,1.51E+05
172.913,1.51E+05
173.298,1.51E+05
173.683,1.51E+05
174.068,1.51E+05
174.453,1.51E+05
174.838,1.51E+05
175.223,1.51E+05
175.608,1.51E+05
175.993,1.51E+05
176.378,1.51E+05
176.763,1.51E+05
177.148,1.50E+05
177.533,1.50E+05
177.918,1.50E+05
178.303,1.50E+05
178.688,1.50E+05
179.073,1.50E+05
179.458,1.50E+05
179.843,1.50E+05
180.228,1.50E+05
180.613,1.50E+05
180.998,1.50E+05
181.383,1.50E+05
181.768,1.50E+05
182.153,1.50E+05
182.538,1.50E+05
182.923,1.50E+05
183.308,1.50E+05
183.693,1.50E+05
184.078,1.50E+05
184.463,1.49E+05
184.848,1.49E+05
185.233,1.49E+05
185.618,1.49E+05
186.003,1.49E+05
186.388,1.49E+05
186.773,1.49E+05
187.158,1.49E+05
187.543,1.49E+05
187.928,1.49E+05
188.313,1.49E+05
188.698,1.49E+05
189.083,1.49E+05
189.468,1.49E+05
189.853,1.49E+05
190.238,1.49E+05
190.623,1.49E+05
191.007,1.49E+05
191.392,1.49E+05
191.777,1.49E+05
192.162,1.48E+05
192.547,1.48E+05
192.932,1.48E+05
193.317,1.48E+05
193.702,1.48E+05
194.087,1.48E+05
194.472,1.48E+05
194.857,1.48E+05
195.242,1.48E+05
195.627,1.48E+05
196.012,1.48E+05
196.397,1.48E+05
196.782,1.48E+05
197.167,1.48E+05
197.552,1.48E+05
197.937,1.48E+05
198.322,1.48E+05
198.707,1.48E+05
199.092,1.48E+05
199.477,1.48E+05
199.862,1.48E+05
200.247,1.47E+05
200.632,1.47E+05
201.017,1.47E+05
201.402,1.47E+05
201.787,1.47E+05
202.172,1.47E+05
202.557,1.47E+05
202.942,1.47E+05
203.327,1.47E+05
203.712,1.47E+05
204.097,1.47E+05
204.482,1.47E+05
204.867,1.47E+05
205.252,1.47E+05
205.637,1.47E+05
206.022,1.47E+05
206.407,1.47E+05
206.792,1.47E+05
207.177,1.47E+05
207.562,1.47E+05
207.947,1.47E+05
208.332,1.47E+05
208.717,1.47E+05
209.102,1.46E+05
209.487,1.46E+05
209.871,1.46E+05
210.256,1.46E+05
210.641,1.46E+05
211.026,1.46E+05
211.411,1.46E+05
211.796,1.46E+05
212.181,1.46E+05
212.566,1.46E+05
212.951,1.46E+05
213.336,1.46E+05
213.721,1.46E+05
214.106,1.46E+05
214.491,1.46E+05
214.876,1.46E+05
215.261,1.46E+05
215.646,1.46E+05
216.031,1.46E+05
216.416,1.46E+05
216.801,1.46E+05
217.186,1.46E+05
217.571,1.46E+05
217.956,1.46E+05
218.341,1.45E+05
218.726,1.45E+05
219.111,1.45E+05
219.496,1.45E+05
219.881,1.45E+05
220.266,1.45E+05
220.651,1.45E+05
221.036,1.45E+05
221.421,1.45E+05
221.806,1.45E+05
222.191,1.45E+05
222.576,1.45E+05
222.961,1.45E+05
223.346,1.45E+05
223.731,1.45E+05
224.116,1.45E+05
224.501,1.45E+05
224.886,1.45E+05
225.271,1.45E+05
225.656,1.45E+05
226.041,1.45E+05
226.426,1.45E+05
226.811,1.45E+05
227.196,1.45E+05
227.581,1.45E+05
227.966,1.44E+05
228.351,1.44E+05
228.735,1.44E+05
229.12,1.44E+05
229.505,1.44E+05
229.89,1.44E+05
230.275,1.44E+05
230.66,1.44E+05
231.045,1.44E+05
231.43,1.44E+05
231.815,1.44E+05
232.2,1.44E+05
232.585,1.44E+05
232.97,1.44E+05
233.355,1.44E+05
233.74,1.44E+05
234.125,1.44E+05
234.51,1.44E+05
234.895,1.44E+05
235.28,1.44E+05
235.665,1.44E+05
236.05,1.44E+05
236.435,1.44E+05
236.82,1.44E+05
237.205,1.44E+05
237.59,1.44E+05
237.975,1.44E+05
238.36,1.43E+05
238.745,1.43E+05
239.13,1.43E+05
239.515,1.43E+05
239.9,1.43E+05
240.285,1.43E+05
240.67,1.43E+05
241.055,1.43E+05
241.44,1.43E+05
241.825,1.43E+05
242.21,1.43E+05
242.595,1.43E+05
242.98,1.43E+05
243.365,1.43E+05
243.75,1.43E+05
244.135,1.43E+05
244.52,1.43E+05
244.905,1.43E+05
245.29,1.43E+05
245.675,1.43E+05
246.06,1.43E+05
246.445,1.43E+05
246.83,1.43E+05
247.215,1.43E+05
247.599,1.43E+05
247.984,1.43E+05
248.369,1.43E+05
248.754,1.43E+05
249.139,1.42E+05
249.524,1.42E+05
249.909,1.42E+05
250.294,1.42E+05
250.679,1.42E+05
251.064,1.42E+05
251.449,1.42E+05
251.834,1.42E+05
252.219,1.42E+05
252.604,1.42E+05
252.989,1.42E+05
253.374,1.42E+05
253.759,1.42E+05
254.144,1.42E+05
254.529,1.42E+05
254.914,1.42E+05
255.299,1.42E+05
255.684,1.42E+05
256.069,1.42E+05
256.069,1.42E+05
256.454,1.42E+05
256.839,1.42E+05
257.224,1.42E+05
257.609,1.42E+05
257.994,1.42E+05
258.379,1.42E+05
258.764,1.42E+05
259.149,1.42E+05
259.534,1.42E+05
259.919,1.42E+05
260.304,1.42E+05
260.689,1.41E+05
261.074,1.41E+05
261.459,1.41E+05
261.844,1.41E+05
262.229,1.41E+05
262.614,1.41E+05
262.999,1.41E+05
263.384,1.41E+05
263.769,1.41E+05
264.154,1.41E+05
264.539,1.41E+05
264.924,1.41E+05
265.309,1.41E+05
265.694,1.41E+05
266.079,1.41E+05
266.464,1.41E+05
266.848,1.41E+05
267.233,1.41E+05
267.618,1.41E+05
268.003,1.41E+05
268.388,1.41E+05
268.773,1.41E+05
269.158,1.41E+05
269.543,1.41E+05
269.928,1.41E+05
270.313,1.41E+05
270.698,1.41E+05
271.083,1.41E+05
271.468,1.41E+05
271.853,1.41E+05
272.238,1.41E+05
272.623,1.40E+05
273.008,1.40E+05
273.393,1.40E+05
273.778,1.40E+05
274.163,1.40E+05
274.548,1.40E+05
274.933,1.40E+05
275.318,1.40E+05
275.703,1.40E+05
276.088,1.40E+05
276.473,1.40E+05
276.858,1.40E+05
277.243,1.40E+05
277.628,1.40E+05
278.013,1.40E+05
278.398,1.40E+05
278.783,1.40E+05
279.168,1.40E+05
279.553,1.40E+05
279.938,1.40E+05
280.323,1.40E+05
280.708,1.40E+05
281.093,1.40E+05
281.478,1.40E+05
281.863,1.40E+05
282.248,1.40E+05
282.633,1.40E+05
283.018,1.40E+05
283.403,1.40E+05
283.788,1.40E+05
284.173,1.40E+05
284.558,1.40E+05
284.943,1.40E+05
285.328,1.39E+05
285.712,1.39E+05
286.097,1.39E+05
286.482,1.39E+05
286.867,1.39E+05
287.252,1.39E+05
287.637,1.39E+05
288.022,1.39E+05
288.407,1.39E+05
288.792,1.39E+05
289.177,1.39E+05
289.562,1.39E+05
289.947,1.39E+05
290.332,1.39E+05
290.717,1.39E+05
291.102,1.39E+05
291.487,1.39E+05
291.872,1.39E+05
292.257,1.39E+05
292.642,1.39E+05
293.027,1.39E+05
293.412,1.39E+05
293.797,1.39E+05
294.182,1.39E+05
294.567,1.39E+05
294.952,1.39E+05
295.337,1.39E+05
295.722,1.39E+05
296.107,1.39E+05
296.492,1.39E+05
296.877,1.39E+05
297.262,1.39E+05
297.647,1.39E+05
298.032,1.39E+05
298.417,1.39E+05
298.802,1.38E+05
299.187,1.38E+05
299.572,1.38E+05
299.957,1.38E+05
300.342,1.38E+05
300.727,1.38E+05
301.112,1.38E+05
301.497,1.38E+05
301.882,1.38E+05
302.267,1.38E+05
302.652,1.38E+05
303.037,1.38E+05
303.422,1.38E+05
303.807,1.38E+05
304.192,1.38E+05
304.576,1.38E+05
304.961,1.38E+05
305.346,1.38E+05
305.731,1.38E+05
306.116,1.38E+05
306.501,1.38E+05
306.886,1.38E+05
307.271,1.38E+05
307.656,1.38E+05
308.041,1.38E+05
308.426,1.38E+05
308.811,1.38E+05
309.196,1.38E+05
309.581,1.38E+05
309.966,1.38E+05
310.351,1.38E+05
310.736,1.38E+05
311.121,1.38E+05
311.506,1.38E+05
311.891,1.38E+05
312.276,1.38E+05
312.661,1.38E+05
313.046,1.37E+05
313.431,1.37E+05
313.816,1.37E+05
314.201,1.37E+05
314.586,1.37E+05
314.971,1.37E+05
315.356,1.37E+05
315.741,1.37E+05
316.126,1.37E+05
316.511,1.37E+05
316.896,1.37E+05
317.281,1.37E+05
317.666,1.37E+05
318.051,1.37E+05
318.436,1.37E+05
318.821,1.37E+05
319.206,1.37E+05
319.591,1.37E+05
319.976,1.37E+05
320.361,1.37E+05
320.746,1.37E+05
321.131,1.37E+05
321.516,1.37E+05
321.901,1.37E+05
322.286,1.37E+05
322.671,1.37E+05
323.056,1.37E+05
323.44,1.37E+05
323.825,1.37E+05
324.21,1.37E+05
324.595,1.37E+05
324.98,1.37E+05
325.365,1.37E+05
325.75,1.37E+05
326.135,1.37E+05
326.52,1.37E+05
326.905,1.37E+05
327.29,1.37E+05
327.675,1.37E+05
328.06,1.36E+05
328.445,1.36E+05
328.83,1.36E+05
329.215,1.36E+05
329.6,1.36E+05
329.985,1.36E+05
330.37,1.36E+05
330.755,1.36E+05
331.14,1.36E+05
331.525,1.36E+05
331.91,1.36E+05
332.295,1.36E+05
332.68,1.36E+05
333.065,1.36E+05
333.45,1.36E+05
333.835,1.36E+05
334.22,1.36E+05
334.605,1.36E+05
334.99,1.36E+05
335.375,1.36E+05
335.76,1.36E+05
336.145,1.36E+05
336.53,1.36E+05
336.915,1.36E+05
337.3,1.36E+05
337.685,1.36E+05
338.07,1.36E+05
338.455,1.36E+05
338.84,1.36E+05
339.225,1.36E+05
339.61,1.36E+05
339.995,1.36E+05
340.38,1.36E+05
340.765,1.36E+05
341.15,1.36E+05
341.535,1.36E+05
341.92,1.36E+05
342.304,1.36E+05
342.689,1.36E+05
343.074,1.36E+05
343.459,1.36E+05
343.844,1.36E+05
344.229,1.35E+05
344.614,1.35E+05
344.999,1.35E+05
345.384,1.35E+05
345.769,1.35E+05
346.154,1.35E+05
346.539,1.35E+05
346.924,1.35E+05
347.309,1.35E+05
347.694,1.35E+05
348.079,1.35E+05
348.464,1.35E+05
348.849,1.35E+05
349.234,1.35E+05
349.619,1.35E+05
350.004,1.35E+05
350.389,1.35E+05
350.774,1.35E+05
351.159,1.35E+05
351.544,1.35E+05
351.929,1.35E+05
352.314,1.35E+05
352.699,1.35E+05
353.084,1.35E+05
353.469,1.35E+05
353.854,1.35E+05
354.239,1.35E+05
354.624,1.35E+05
355.009,1.35E+05
355.394,1.35E+05
355.779,1.35E+05
356.164,1.35E+05
356.549,1.35E+05
356.934,1.35E+05
357.319,1.35E+05
357.704,1.35E+05
358.089,1.35E+05
358.474,1.35E+05
358.859,1.35E+05
359.244,1.35E+05
359.629,1.35E+05
360.014,1.35E+05
360.399,1.35E+05
360.784,1.34E+05
361.169,1.34E+05
361.553,1.34E+05
361.938,1.34E+05
362.323,1.34E+05
362.708,1.34E+05
363.093,1.34E+05
363.478,1.34E+05
363.863,1.34E+05
364.248,1.34E+05
364.633,1.34E+05
365.018,1.34E+05
365.403,1.34E+05
365.788,1.34E+05
366.173,1.34E+05
366.558,1.34E+05
366.943,1.34E+05
367.328,1.34E+05
367.713,1.34E+05
368.098,1.34E+05
368.483,1.34E+05
368.868,1.34E+05
369.253,1.34E+05
369.638,1.34E+05
370.023,1.34E+05
370.408,1.34E+05
370.793,1.34E+05
371.178,1.34E+05
371.563,1.34E+05
371.948,1.34E+05
372.333,1.34E+05
372.718,1.34E+05
373.103,1.34E+05
373.488,1.34E+05
373.873,1.34E+05
374.258,1.34E+05
374.643,1.34E+05
375.028,1.34E+05
375.413,1.34E+05
375.798,1.34E+05
376.183,1.34E+05
376.568,1.34E+05
376.953,1.34E+05
377.338,1.34E+05
377.723,1.34E+05
378.108,1.34E+05
378.493,1.33E+05
378.878,1.33E+05
379.263,1.33E+05
379.648,1.33E+05
380.033,1.33E+05
380.417,1.33E+05
380.802,1.33E+05
381.187,1.33E+05
381.572,1.33E+05
381.957,1.33E+05
382.342,1.33E+05
382.727,1.33E+05
383.112,1.33E+05
383.497,1.33E+05
383.882,1.33E+05
384.267,1.33E+05
384.652,1.33E+05
385.037,1.33E+05
385.422,1.33E+05
385.422,1.33E+05
385.807,1.33E+05
386.192,1.33E+05
386.577,1.33E+05
386.962,1.33E+05
387.347,1.33E+05
387.732,1.33E+05
388.117,1.33E+05
388.502,1.33E+05
388.887,1.33E+05
389.272,1.33E+05
389.657,1.33E+05
390.042,1.33E+05
390.427,1.33E+05
390.812,1.33E+05
391.197,1.33E+05
391.582,1.33E+05
391.967,1.33E+05
392.352,1.33E+05
392.737,1.33E+05
393.122,1.33E+05
393.507,1.33E+05
393.892,1.33E+05
394.277,1.33E+05
394.662,1.33E+05
395.047,1.33E+05
395.432,1.33E+05
395.817,1.33E+05
396.202,1.33E+05
396.587,1.33E+05
396.972,1.33E+05
397.357,1.32E+05
397.742,1.32E+05
398.127,1.32E+05
398.512,1.32E+05
398.897,1.32E+05
399.282,1.32E+05
399.666,1.32E+05
400.051,1.32E+05
400.436,1.32E+05
400.821,1.32E+05
401.206,1.32E+05
401.591,1.32E+05
401.976,1.32E+05
402.361,1.32E+05
402.746,1.32E+05
403.131,1.32E+05
403.516,1.32E+05
403.901,1.32E+05
404.286,1.32E+05
404.671,1.32E+05
405.056,1.32E+05
405.441,1.32E+05
405.826,1.32E+05
406.211,1.32E+05
406.596,1.32E+05
406.981,1.32E+05
407.366,1.32E+05
407.751,1.32E+05
408.136,1.32E+05
408.521,1.32E+05
408.906,1.32E+05
409.291,1.32E+05
409.676,1.32E+05
410.061,1.32E+05
410.446,1.32E+05
410.831,1.32E+05
411.216,1.32E+05
411.601,1.32E+05
411.986,1.32E+05
412.371,1.32E+05
412.756,1.32E+05
413.141,1.32E+05
413.526,1.32E+05
413.911,1.32E+05
414.296,1.32E+05
414.681,1.32E+05
415.066,1.32E+05
415.451,1.32E+05
415.836,1.32E+05
416.221,1.32E+05
416.606,1.32E+05
416.991,1.31E+05
417.376,1.31E+05
417.761,1.31E+05
418.146,1.31E+05
418.53,1.31E+05
418.915,1.31E+05
419.3,1.31E+05
419.685,1.31E+05
420.07,1.31E+05
420.455,1.31E+05
420.84,1.31E+05
421.225,1.31E+05
421.61,1.31E+05
421.995,1.31E+05
422.38,1.31E+05
422.765,1.31E+05
423.15,1.31E+05
423.535,1.31E+05
423.92,1.31E+05
424.305,1.31E+05
424.69,1.31E+05
425.075,1.31E+05
425.46,1.31E+05
425.845,1.31E+05
426.23,1.31E+05
426.615,1.31E+05
427,1.31E+05
427.385,1.31E+05
427.77,1.31E+05
428.155,1.31E+05
428.54,1.31E+05
428.925,1.31E+05
429.31,1.31E+05
429.695,1.31E+05
430.08,1.31E+05
430.465,1.31E+05
