x (mm),Q (W/m2)
0,1857160
2.50000000000128,1600860
4.99999999999901,1237170
7.50000000000028,1091510
10.0000000000016,1032210
12.4999999999993,993765
14.9000000000008,961537
17.3999999999985,934253
19.8999999999998,911020
22.4000000000011,891007
24.8999999999988,873755
27.4000000000001,858849
29.9000000000014,845691
32.3999999999991,833897
34.9000000000004,823350
37.2999999999983,813790
39.7999999999996,804882
42.3000000000009,796397
44.7999999999986,788222
47.2999999999999,780424
49.8000000000012,773178
52.2999999999989,766546
54.8000000000002,760463
57.3000000000015,754811
59.6999999999994,749440
62.2000000000007,744244
64.6999999999984,739214
67.1999999999997,734368
69.700000000001,729739
72.1999999999987,725380
74.7,721293
77.2000000000013,717421
79.699999999999,713700
82.2000000000003,710074
84.5999999999982,706517
87.0999999999995,703045
89.6000000000008,699473
92.0999999999985,695860
94.5999999999998,694466
94.5999999999998,694466
97.1000000000011,693571
99.499999999999,691017
102.399999999999,687397
105.2,683561
108.699999999999,679091
112.200000000001,674796
116.499999999999,670168
120.799999999999,666096
126.100000000001,661343
131.399999999999,657003
138.000000000002,652021
144.600000000001,645560
152.000000000001,638916
159.300000000002,633165
166.799999999999,627609
174.199999999999,623110
181.699999999999,618759
189.2,614718
196.7,610802
204.2,607030
211.7,603415
219.200000000001,599969
226.700000000001,596701
234.200000000001,593536
241.700000000002,590421
249.199999999998,587404
256.599999999999,584467
264.099999999999,581652
271.599999999999,579010
279,576514
286.5,574097
293.900000000001,571733
301.400000000001,569412
308.900000000001,567155
316.299999999998,564974
323.799999999999,562847
331.299999999999,560820
338.899999999999,558856
346.399999999999,556935
353.899999999999,555033
361.4,553090
368.8,551209
376.300000000001,549386
383.800000000001,547620
391.300000000001,545972
398.800000000001,544362
406.300000000002,542827
413.799999999998,541364
421.299999999999,539903
428.799999999999,538443
436.299999999999,536932
443.7,535398
451.2,533871
458.7,532379
466.100000000001,530973
473.600000000001,529683
481.000000000002,528466
488.499999999998,527272
495.999999999999,526083
503.499999999999,524851
510.999999999999,523613
518.5,522330
526,521013
533.5,519666
541,518139
548.500000000001,516742
556.000000000001,515630
563.400000000001,514544
570.900000000002,513477
578.499999999998,512405
585.999999999999,511379
593.499999999999,510440
600.999999999999,509502
608.499999999999,508460
615.9,507628
623.4,507059
630.9,506237
638.300000000001,505191
645.800000000001,504156
653.199999999998,503188
660.699999999998,502257
668.199999999999,501354
675.599999999999,500492
683.1,499643
690.6,498842
698.1,498032
705.6,497230
713.200000000001,496459
720.600000000001,495690
728.100000000001,495022
735.600000000002,494342
743.099999999998,493556
750.599999999999,492694
758.099999999999,491730
765.599999999999,490730
773.099999999999,489714
780.6,488638
788.1,487719
795.6,487044
803.000000000001,486438
810.500000000001,485840
818.000000000001,485215
825.399999999998,484592
832.899999999999,483981
840.299999999999,483384
847.799999999999,482805
855.3,482222
862.8,481604
870.3,480961
877.800000000001,480276
885.300000000001,479576
892.800000000001,478877
900.300000000001,478198
907.800000000002,477607
915.199999999999,477030
922.699999999999,476426
930.199999999999,475777
937.7,475012
945.2,474240
952.7,473538
960.2,472907
967.700000000001,472385
975.200000000001,471917
982.700000000001,471484
990.100000000002,471061
997.599999999999,470615
1005,470165
1012.5,469707
1020,469250
1027.4,468806
1034.9,468358
1042.4,467887
1049.9,467389
1057.4,466831
1064.9,466246
1072.4,465650
1079.9,465061
1087.4,464542
1094.8,464038
1102.3,463535
1109.8,463009
1117.3,462401
1124.8,461765
1132.3,461157
1139.8,460572
1147.3,460012
1154.8,459481
1162.3,459012
1169.7,458578
1177.2,458121
1184.6,457677
1192.1,457273
1199.6,456906
1207,456574
1214.5,456253
1222,455902
1229.5,455532
1236.9,455127
1244.5,454696
1252,454199
1259.5,453881
1267,453753
1274.4,453539
1281.9,453298
1289.4,452969
1296.9,452507
1304.4,452010
1311.9,451506
1319.4,451018
1326.9,450589
1334.4,450184
1341.9,449808
1349.3,449440
1356.8,449070
1364.3,448704
1371.7,448332
1379.2,447968
1386.6,447625
1394.1,447287
1401.6,446943
1409.1,446595
1416.6,446212
1424.1,445838
1431.6,445489
1439.1,445160
1446.6,444879
1454.1,444590
1461.5,444288
1469,443962
1476.5,443578
1484,443193
1491.5,442817
1499,442457
1506.5,442131
1514,441811
1521.5,441505
1529,441193
1536.4,440870
1543.9,440538
1551.3,440189
1558.8,439843
1566.3,439520
1573.7,439200
1581.2,438867
1588.7,438516
1596.2,438117
1603.7,437688
1611.2,437230
1618.7,436773
1626.2,436378
1633.7,436033
1641.2,435772
1648.7,435539
1656.1,435242
1663.7,434926
1671.2,434596
1678.7,434273
1686.2,433990
1693.7,433721
1701.1,433479
1708.6,433239
1716.1,432989
1723.5,432730
1731,432444
1738.5,432168
1745.9,431971
1753.4,431705
1760.8,431036
1768.3,430337
1775.8,429588
1782.7,428819
1789.6,428072
1795.6,427130
1801.5,426754
1806.4,426432
1811.3,426851
1815.3,427574
1819.2,428288
1822.4,428700
1825.6,428977
1828.3,429353
1830.9,431270
1830.9,431270
1833.4,433817
1835.9,435303
1838.4,436056
1840.8,435740
1843.3,434831
1845.8,433068
1848.1,431218
1850.5,430229
1852.5,429933
1854.5,430606
1856.4,431691
1858.3,432818
1860.1,433858
1862,434500
1862,434500
1863.8,434886
1865.6,434915
1867.5,434740
1869.3,434464
1871.1,434157
1873,433847
1874.8,433543
1876.6,433252
1878.5,432979
1880.3,432729
1882.2,432501
1884,432293
1885.8,432104
1887.7,431931
1889.5,431772
1891.3,431623
1893.2,431482
1895,431349
1896.8,431225
1898.7,431108
1900.5,430997
1902.3,430892
1904.2,430793
1906,430699
1907.8,430609
1909.7,430523
1911.5,430441
1913.3,430359
1915.2,430283
1917,430224
1918.8,430168
1920.7,430046
1922.5,429960
1924.3,429989
1926.2,430016
1928,429984
1929.9,429906
1931.7,429825
1933.5,429765
1935.4,429724
1937.2,429694
1939,429668
1940.9,429643
1942.7,429617
1944.5,429591
1946.4,429564
1948.2,429536
1950,429507
1951.9,429477
1953.7,429448
1955.5,429417
1957.4,429386
1959.2,429347
1961,429311
1962.9,429227
1964.7,428945
1966.5,428399
1968.3,426917
1970,424964
1971.7,423123
1973.1,421739
1974.5,421111
1975.6,421009
1976.8,421459
1977.7,422021
1978.7,422407
1979.4,422516
1980.2,422659
1980.8,422965
1981.5,423532
1982,424063
1982.5,424839
1982.9,425615
1983.4,425952
1983.8,426100
1984.2,426922
1984.7,428050
1985.1,428626
1985.5,429018
1986,429298
1986.4,429440
1986.8,429466
1987.3,429429
1987.7,429369
1988.1,429304
1988.6,429237
1989,429163
1989.4,429081
1989.9,428993
1990.3,428904
1990.7,428819
1991.2,428740
1991.6,428670
1992,428607
1992.5,428552
1992.9,428503
1993.3,428459
1993.8,428421
1994.2,428388
1994.6,428360
1995.1,428337
1995.5,428318
1995.9,428305
1996.4,428297
1996.8,428295
1997.2,428297
1997.7,428304
1998.1,428315
1998.5,428329
1999,428346
1999.4,428366
1999.8,428389
2000.3,428413
2000.7,428439
2001.1,428466
2001.6,428492
2002,428518
2002.4,428543
2002.9,428567
2003.3,428590
2003.8,428613
2004.2,428634
2004.6,428654
2005.1,428672
2005.5,428689
2005.9,428702
2006.4,428714
2006.8,428723
2007.2,428731
2007.7,428737
2008.1,428744
2008.5,428750
2009,428758
2009.4,428767
2009.8,428778
2010.3,428790
2010.7,428803
2011.1,428816
2011.6,428828
2012,428840
2012.4,428850
2012.9,428858
2013.3,428864
2013.7,428866
2014.2,428866
2014.6,428863
2015,428858
2015.5,428849
2015.9,428838
2016.3,428825
2016.8,428810
2017.2,428792
2017.6,428772
2018.1,428751
2018.5,428727
2018.9,428702
2019.4,428675
2019.8,428646
2020.2,428616
2020.7,428585
2021.1,428552
2021.5,428519
2022,428484
2022.4,428448
2022.8,428412
2023.3,428375
2023.7,428338
2024.1,428300
2024.6,428263
2025,428225
2025.4,428187
2025.9,428148
2026.3,428110
2026.7,428072
2027.2,428033
2027.6,427995
2028,427957
2028.5,427919
2028.9,427882
2029.3,427845
2029.8,427809
2030.2,427773
2030.6,427739
2031.1,427705
2031.5,427672
2032,427639
2032.4,427608
2032.8,427579
2033.3,427550
2033.7,427522
2034.1,427496
2034.6,427471
2035,427447
2035.4,427424
2035.9,427402
2036.3,427382
2036.7,427362
2037.2,427343
2037.6,427325
2038,427308
2038,427308
2038.5,427291
2038.9,427276
2039.3,427262
2039.8,427248
2040.2,427235
2040.6,427224
2041.1,427213
2041.5,427203
2041.9,427194
2042.4,427185
2042.8,427178
2043.2,427171
2043.7,427166
2044.1,427161
2044.5,427157
2045,427154
2045.4,427152
2045.8,427151
2046.3,427151
2046.7,427152
2047.1,427153
2047.6,427156
2048,427160
2048.4,427165
2048.9,427171
2049.3,427177
2049.7,427185
2050.2,427193
2050.6,427201
2051,427210
2051.5,427219
2051.9,427229
2052.3,427239
2052.8,427249
2053.2,427259
2053.6,427269
2054.1,427279
2054.5,427288
2054.9,427298
2055.4,427308
2055.8,427317
2056.2,427326
2056.7,427335
2057.1,427343
2057.5,427352
2058,427360
2058.4,427367
2058.8,427375
2059.3,427382
2059.7,427389
2060.2,427396
2060.6,427402
2061,427408
2061.5,427414
2061.9,427420
2062.3,427425
2062.8,427431
2063.2,427436
2063.6,427441
2064.1,427446
2064.5,427450
2064.9,427455
2065.4,427459
2065.8,427463
2066.2,427468
2066.7,427471
2067.1,427475
2067.5,427479
2068,427482
2068.4,427485
2068.8,427488
2069.3,427490
2069.7,427492
2070.1,427494
2070.6,427495
2071,427496
2071.4,427496
2071.9,427496
2072.3,427496
2072.7,427494
2073.2,427493
2073.6,427491
2074,427489
2074.5,427486
2074.9,427482
2075.3,427479
2075.8,427475
2076.2,427471
2076.6,427466
2077.1,427461
2077.5,427456
2077.9,427451
2078.4,427446
2078.8,427441
2079.2,427435
2079.7,427430
2080.1,427424
2080.5,427419
2081,427413
2081.4,427408
2081.8,427402
2082.3,427397
2082.7,427392
2083.1,427387
2083.6,427382
2084,427376
2084.4,427371
2084.9,427366
2085.3,427361
2085.7,427356
2086.2,427350
2086.6,427345
2087,427340
2087.5,427334
2087.9,427328
2088.4,427323
2088.8,427317
2089.2,427311
2089.7,427305
2090.1,427299
2090.5,427293
2091,427287
2091.4,427280
2091.8,427273
2092.3,427266
2092.7,427259
2093.1,427251
2093.6,427243
2094,427235
2094.4,427226
2094.9,427217
2095.3,427208
2095.7,427199
2096.2,427190
2096.6,427180
2097,427171
2097.5,427161
2097.9,427151
2098.3,427142
2098.8,427132
2099.2,427123
2099.6,427113
2100.1,427104
2100.5,427096
2100.9,427087
2101.4,427079
2101.8,427071
2102.2,427063
2102.7,427056
2103.1,427049
2103.5,427042
2104,427036
2104.4,427030
2104.8,427024
2105.3,427018
2105.7,427013
2106.1,427007
2106.6,427003
2107,426998
2107.4,426994
2107.9,426990
2108.3,426986
2108.7,426982
2109.2,426978
2109.6,426974
2110,426970
2110.5,426966
2110.9,426962
2111.3,426957
2111.8,426952
2112.2,426946
2112.6,426940
2113.1,426934
2113.5,426927
2113.9,426919
2114.4,426912
2114.8,426904
2115.2,426896
2115.7,426889
2116.1,426881
2116.6,426874
2117,426867
2117.4,426861
2117.9,426854
2118.3,426847
2118.7,426841
2119.2,426834
2119.6,426826
2120,426818
2120.5,426809
2120.9,426800
2121.3,426790
2121.8,426779
2122.2,426768
2122.6,426757
2123.1,426745
2123.5,426732
2123.9,426719
2124.4,426706
2124.8,426692
2125.2,426678
2125.7,426663
2126.1,426647
2126.5,426631
2127,426615
2127.4,426599
2127.8,426584
2128.3,426570
2128.7,426557
2129.1,426545
2129.6,426534
2130,426525
2130.4,426517
2130.9,426510
2131.3,426504
2131.7,426498
2132.2,426493
2132.6,426488
2133,426482
2133.5,426476
2133.9,426471
2134.3,426464
2134.8,426458
2135.2,426451
2135.6,426444
2136.1,426437
2136.5,426429
2136.9,426422
2137.4,426414
2137.8,426407
2138.2,426399
2138.7,426391
2139.1,426384
2139.5,426376
2140,426369
2140.4,426363
2140.8,426357
2141.3,426351
2141.7,426346
2142.1,426342
2142.6,426338
2143,426333
2143.4,426329
2143.9,426324
2144.3,426318
2144.8,426311
2145.2,426303
2145.6,426294
2146.1,426283
2146.5,426271
2146.9,426257
2147.4,426243
2147.8,426228
2148.2,426212
2148.7,426196
2149.1,426180
2149.5,426164
2150,426149
2150.4,426134
2150.8,426120
2151.3,426108
2151.7,426096
2152.1,426085
2152.6,426076
2153,426067
2153.4,426058
2153.4,426058
2153.9,426051
2154.3,426044
2154.7,426037
2155.2,426030
2155.6,426024
2156,426017
2156.5,426011
2156.9,426004
2157.3,425997
2157.8,425990
2158.2,425982
2158.6,425974
2159.1,425966
2159.5,425958
2159.9,425950
2160.4,425942
2160.8,425934
2161.2,425926
2161.7,425918
2162.1,425910
2162.5,425903
2163,425896
2163.4,425890
2163.8,425884
2164.3,425878
2164.7,425872
2165.1,425867
2165.6,425862
2166,425857
2166.4,425853
2166.9,425848
2167.3,425844
2167.7,425839
2168.2,425834
2168.6,425829
2169,425824
2169.5,425818
2169.9,425812
2170.3,425805
2170.8,425798
2171.2,425790
2171.6,425782
2172.1,425774
2172.5,425765
2173,425756
2173.4,425747
2173.8,425738
2174.3,425729
2174.7,425720
2175.1,425712
2175.6,425704
2176,425696
2176.4,425689
2176.9,425682
2177.3,425676
2177.7,425671
2178.2,425665
2178.6,425660
2179,425655
2179.5,425650
2179.9,425644
2180.3,425639
2180.8,425632
2181.2,425626
2181.6,425619
2182.1,425611
2182.5,425603
2182.9,425595
2183.4,425585
2183.8,425576
2184.2,425566
2184.7,425555
2185.1,425544
2185.5,425533
2186,425522
2186.4,425511
2186.8,425499
2187.3,425488
2187.7,425477
2188.1,425466
2188.6,425455
2189,425444
2189.4,425434
2189.9,425423
2190.3,425413
2190.7,425403
2191.2,425393
2191.6,425384
2192,425375
2192.5,425365
2192.9,425356
2193.3,425347
2193.8,425338
2194.2,425330
2194.6,425321
2195.1,425313
2195.5,425304
2195.9,425296
2196.4,425288
2196.8,425280
2197.2,425273
2197.7,425266
2198.1,425259
2198.5,425252
2199,425245
2199.4,425239
2199.9,425233
2200.3,425227
2200.7,425222
2201.2,425216
2201.6,425211
2202,425206
2202.5,425201
2202.9,425197
2203.3,425192
2203.8,425187
2204.2,425182
2204.6,425177
2205.1,425172
2205.5,425166
2205.9,425161
2206.4,425155
2206.8,425148
2207.2,425142
2207.7,425135
2208.1,425128
2208.5,425121
2209,425113
2209.4,425106
2209.8,425099
2210.3,425091
2210.7,425084
2211.1,425077
2211.6,425070
2212,425063
2212.4,425056
2212.9,425049
2213.3,425042
2213.7,425035
2214.2,425027
2214.6,425019
2215,425011
2215.5,425003
2215.9,424995
2216.3,424986
2216.8,424977
2217.2,424967
2217.6,424957
2218.1,424948
2218.5,424938
2218.9,424927
2219.4,424917
2219.8,424907
2220.2,424896
2220.7,424886
2221.1,424875
2221.5,424864
2222,424854
2222.4,424843
2222.8,424832
2223.3,424822
2223.7,424812
2224.1,424802
2224.6,424792
2225,424783
2225.4,424774
2225.9,424765
2226.3,424757
2226.7,424749
2227.2,424742
2227.6,424735
2228.1,424728
2228.5,424722
2228.9,424716
2229.4,424709
2229.8,424703
2230.2,424697
2230.7,424691
2231.1,424685
2231.5,424679
2232,424672
2232.4,424666
2232.8,424659
2233.3,424652
2233.7,424646
2234.1,424639
2234.6,424633
2235,424626
2235.4,424619
2235.9,424613
2236.3,424606
2236.7,424600
2237.2,424594
2237.6,424587
2238,424581
2238.5,424574
2238.9,424568
2239.3,424561
2239.8,424555
2240.2,424549
2240.6,424542
2241.1,424536
2241.5,424530
2241.9,424525
2242.4,424519
2242.8,424514
2243.2,424508
2243.7,424503
2244.1,424498
2244.5,424493
2245,424489
2245.4,424485
2245.8,424480
2246.3,424477
2246.7,424473
2247.1,424470
2247.6,424466
2248,424463
2248.4,424460
2248.9,424457
2249.3,424454
2249.7,424450
2250.2,424446
2250.6,424442
2251,424438
2251.5,424433
2251.9,424427
2252.3,424421
2252.8,424415
2253.2,424408
2253.6,424401
2254.1,424394
2254.5,424387
2254.9,424379
2255.4,424371
2255.8,424364
2256.3,424356
2256.7,424348
2257.1,424340
2257.6,424332
2258,424324
2258.4,424316
2258.9,424308
2259.3,424300
2259.7,424292
2260.2,424284
2260.6,424275
2261,424267
2261.5,424259
2261.9,424250
2262.3,424242
2262.8,424234
2263.2,424227
2263.6,424219
2264.1,424212
2264.5,424206
2264.9,424200
2265.4,424195
2265.8,424190
2266.2,424186
2266.7,424182
2267.1,424179
2267.5,424175
2268,424173
2268.4,424170
2268.8,424168
2269.3,424165
2269.7,424163
2270.1,424160
2270.6,424157
2271,424154
2271.4,424152
2271.9,424149
2272.3,424146
2272.7,424143
2273.2,424139
2273.6,424136
2274,424133
2274.5,424130
2274.9,424127
2275.3,424124
2275.8,424121
2276.2,424118
2276.6,424114
2277.1,424110
2277.5,424105
2277.9,424100
2278.4,424095
2278.8,424089
2279.2,424082
2279.7,424075
2280.1,424067
2280.5,424059
2281,424051
2281.4,424042
2281.8,424033
2282.3,424024
2282.7,424015
2283.1,424006
2283.6,423997
2284,423988
2284.5,423980
2284.9,423971
2285.3,423962
2285.8,423953
2286.2,423945
2286.6,423936
2287.1,423927
2287.5,423919
2287.9,423910
2288.4,423902
2288.8,423894
2289.2,423886
2289.7,423879
2290.1,423872
2290.5,423866
2291,423860
2291.4,423856
2291.8,423852
2292.3,423849
2292.7,423847
2293.1,423846
2293.6,423845
2294,423844
2294.4,423844
2294.9,423845
2295.3,423846
2295.7,423847
2296.2,423847
2296.6,423848
2297,423850
2297.5,423840
2297.9,423826
2298.3,423823
2298.8,423854
2299.2,423883
2299.6,423886
2300.1,424011
2300.5,424156
2300.9,424078
2301.4,424600
2301.8,423437
2302.2,391894
2302.7,307550
2303.1,263133
2303.5,298203
2304,343515
2304.4,378488
2304.8,402827
2305.3,423545
2305.7,443953
2306.1,462639
2306.6,478561
2307,490265
2307.4,498948
2307.9,506802
2308.3,515739
2308.7,524630
2309.2,532129
2309.6,538844
2310,545573
2310.5,552429
2310.9,559330
2311.3,565930
2311.8,572211
2312.2,578392
2312.7,584412
2313.1,589693
2313.5,593396
2314,595931
2314.4,598144
2314.8,600475
2315.3,603361
2315.7,606811
2316.1,610650
2316.6,614634
2317,618596
2317.4,622562
2317.9,626464
2318.3,630161
2318.7,633607
2319.2,636900
2319.6,640113
2320,643198
2320.5,646123
2320.9,648843
2321.3,651320
2321.8,653611
2322.2,655760
2322.6,657718
2323.1,659448
2323.5,660936
2323.9,662162
2324.4,663162
2324.8,663974
2325.2,664581
2325.7,664982
2326.1,665218
2326.5,665321
2327,665263
2327.4,665032
2327.8,664650
2328.3,664136
2328.7,663490
2329.1,662725
2329.6,661869
2330,660945
2330.4,659959
2330.9,658916
2331.3,657828
2331.7,656715
2332.2,655616
2332.6,654558
2333,653551
2333.5,652608
2333.9,651759
2334.3,651023
2334.8,650425
2335.2,649990
2335.6,649745
2336.1,649719
2336.5,649937
2336.9,650425
2337.4,651207
2337.8,652307
2338.2,653746
2338.7,655544
2339.1,657720
2339.6,660296
2340,663289
2340.4,666721
2340.9,670611
2341.3,674982
2341.7,679855
2342.2,685255
2342.6,691205
2343,697730
2343.5,704860
2343.9,712624
2344.3,721059
2344.8,730203
2345.2,740098
2345.6,750782
2346.1,762252
2346.5,774605
2346.9,787955
2347.4,802334
2347.8,817832
2348.2,834564
2348.7,852665
2349.1,872240
2349.5,893385
2350,916013
2350.4,939734
2350.8,963072
2351.3,984174
2351.7,997059
2352.1,996486
2352.6,945730
2353,751584
2353.3,647071
2353.7,758631
2354,856872
2354.3,909889
2354.7,949433
2355,979842
2355.4,1006620
2355.7,1030770
2356,1053700
2356.4,1075790
2356.7,1097560
2357,1119150
2357.4,1140730
2357.7,1162400
2358,1184270
2358.4,1206370
2358.7,1228750
2359,1251460
2359.4,1274560
2359.7,1298050
2360.1,1321930
2360.4,1346220
2360.7,1370930
2361.1,1396030
2361.4,1421510
2361.7,1447400
2362.1,1473740
2362.4,1500450
2362.7,1527460
2363.1,1554780
2363.4,1582470
2363.7,1610490
2364.1,1638860
2364.4,1667610
2364.7,1696700
2365.1,1726520
2365.4,1756720
2365.8,1786660
2366.1,1817180
2366.4,1848440
2366.8,1880520
2367.1,1912790
2367.4,1944460
2367.8,1976400
2368.1,2008560
2368.4,2040720
2368.8,2073560
2369.1,2106840
2369.5,2140400
2369.8,2174400
2370.1,2208610
2370.5,2243000
2370.8,2277550
2371.1,2312250
2371.5,2347080
2371.8,2382020
2372.1,2417080
2372.5,2452240
2372.8,2487500
2373.1,2522880
2373.5,2558390
2373.8,2594060
2374.2,2629890
2374.5,2665920
2374.8,2702160
2375.2,2738570
2375.5,2775120
2375.8,2811790
2376.2,2848550
2376.5,2885350
2376.8,2922180
2377.2,2958890
2377.5,2995720
2377.8,3032440
2378.2,3068930
2378.5,3105700
2378.9,3142490
2379.2,3179490
2379.5,3216660
2379.9,3253730
2380.2,3291070
2380.5,3328500
2380.9,3365920
2381.2,3403340
2381.5,3440830
2381.9,3478340
2382.2,3516090
2382.5,3554320
2382.9,3594270
2383.2,3637050
2383.6,3678490
2383.9,3716030
2384.2,3753420
2384.6,3790500
2384.9,3827370
2385.2,3863810
2385.6,3899600
2385.9,3935750
2386.2,3971190
2386.6,4006110
2386.9,4040020
2387.2,4072900
2387.6,4104830
2387.9,4135890
2388.3,4166200
2388.6,4196030
2388.9,4225680
2389.3,4255280
2389.6,4284860
2389.9,4314320
2390.3,4343540
2390.6,4372250
2390.9,4400250
2391.3,4427520
2391.6,4454140
2391.9,4480160
2392.3,4505670
2392.6,4530780
2393,4555550
