Region: Body 1.Ramp1: Position[X] (m),Region: Body 1.Ramp1: Wall Shear Stress[i] (Pa)
2.116952098,356.9389546
2.116703959,356.9405307
2.116455821,356.9419372
2.116207682,356.9427085
2.115959543,356.943789
2.115711405,356.9422351
2.115463266,356.9412626
2.115215127,356.9384085
2.114966989,356.9363871
2.11471885,356.9340224
2.114470712,356.9294941
2.114222573,356.926449
2.113974434,356.9202032
2.113726296,356.9162422
2.113478157,356.911134
2.113230018,356.905546
2.11298188,356.9017214
2.112733741,356.894545
2.112485603,356.8901005
2.112237464,356.884281
2.111989325,356.8785878
2.111743399,356.8739123
2.111495261,356.8687627
2.111244909,356.8636636
2.110996771,356.8591683
2.110748632,356.8556246
2.110500494,356.8502974
2.110252355,356.8478377
2.110004216,356.8447688
2.109758115,356.8427662
2.109509977,356.8403859
2.1092598,356.8409992
2.109011662,356.8385276
2.108763523,356.8405743
2.108515385,356.8415771
2.108267246,356.8415419
2.108019107,356.8448932
2.107771635,356.8495587
2.107523496,356.8534364
2.107274691,356.8573961
2.107026553,356.8624556
2.106778414,356.8700453
2.106530275,356.8760898
2.106282137,356.8849314
2.106033998,356.8933199
2.1057838,356.9016136
2.105535661,356.9099759
2.105289582,356.9195679
2.105041444,356.9282712
2.104793305,356.937612
2.104545166,356.9452899
2.104297028,356.9540435
2.104048889,356.9629994
2.103797873,356.9691778
2.103549735,356.9783708
2.103304473,356.9845783
2.103056335,356.9925078
2.102808196,356.9971018
2.102560057,357.0055236
2.102311919,357.0114495
2.10206378,357.017901
2.101815642,357.0229309
2.101567503,357.0287949
2.101319364,357.035695
2.101071226,357.0426163
2.100823087,357.0477423
2.100574948,357.0544844
2.10032681,357.0606185
2.100078671,357.0686739
2.099830533,357.0759212
2.099582394,357.0827197
2.099334255,357.090166
2.099086117,357.0998027
2.098837978,357.1075792
2.098589839,357.1177509
2.098341701,357.1260024
2.098096659,357.1373032
2.09784852,357.1460959
2.097597285,357.1573106
2.097349146,357.1675275
2.097101008,357.1798689
2.096852869,357.1903952
2.09660473,357.2030927
2.096356592,357.2154277
2.096110876,357.2267427
2.095862738,357.239047
2.095612176,357.25076
2.095364037,357.2642824
2.095115899,357.2764657
2.09486776,357.2874387
2.094619621,357.3015813
2.094371483,357.3123103
2.094123041,357.3239221
2.093874903,357.3345168
2.093627067,357.3446522
2.093378928,357.3556887
2.09313079,357.3641522
2.092882651,357.3736747
2.092634512,357.3804939
2.092386374,357.3870538
2.092135206,357.3935191
2.091887067,357.3977769
2.091641958,357.402779
2.091393819,357.405378
2.091145681,357.4067261
2.090897542,357.4077764
2.090649403,357.4074843
2.090401265,357.4065347
2.090151046,357.4065602
2.089902907,357.4042136
2.089656849,357.4006186
2.08940871,357.3997154
2.089160572,357.3953069
2.088912433,357.3915015
2.088664294,357.3887156
2.088416156,357.3839638
2.088168017,357.3809659
2.087919878,357.3763755
2.08767174,357.3745598
2.087423601,357.3699214
2.087175463,357.3677086
2.086927324,357.3637428
2.086679185,357.3622668
2.086433547,357.3592068
2.086185408,357.358583
2.085934769,357.3555857
2.085686631,357.3542226
2.085438492,357.3549228
2.085190353,357.3541087
2.084942215,357.3551314
2.084694076,357.3561932
2.084448449,357.3571547
2.084200311,357.3602384
2.08394966,357.3630078
2.083701522,357.3637599
2.083453383,357.3696422
2.083205244,357.3736471
2.082957106,357.3782377
2.082708967,357.3829005
2.082462282,357.3876943
2.082214144,357.3947737
2.081964551,357.3992489
2.081716413,357.404459
2.081468274,357.4118134
2.081220135,357.4157122
2.080971997,357.421687
2.080723858,357.4275949
2.080474447,357.4329111
2.080226309,357.4373013
2.079979442,357.4430881
2.079731304,357.446807
2.079483165,357.4514918
2.079235026,357.4552541
2.078986888,357.4602016
2.078738749,357.4639743
2.078488208,357.4680268
2.07824007,357.4722943
2.077994333,357.476348
2.077746195,357.4798117
2.077498056,357.4848157
2.077249917,357.4881307
2.258142977,354.4304747
2.258391116,354.4288193
2.260376225,354.428943
2.260624363,354.4312366
2.262609472,354.4572844
2.262361334,354.4530945
2.257894838,354.4323782
2.258639254,354.4279672
2.260128086,354.4269663
2.260872502,354.4321828
2.255909729,354.4715856
2.256157868,354.4639712
2.25218765,354.6838358
2.251942661,354.7049266
2.264594581,354.4927057
2.262857611,354.4616538
2.262113195,354.4486432
2.2576467,354.4376277
2.258887393,354.4267213
2.259879947,354.4262776
2.261120641,354.4357781
2.257398561,354.4386107
2.255661591,354.4792711
2.256406007,354.4568008
2.257150423,354.4418926
2.252435789,354.6650771
2.251694523,354.726521
2.264346443,354.4883826
2.26310575,354.4666799
2.261865056,354.4455082
2.259135532,354.4258803
2.25962937,354.4259899
2.261367446,354.4374993
2.255413452,354.4891294
2.256654145,354.4527207
2.256902284,354.4460055
2.252683927,354.6459352
2.251443234,354.7457169
2.264098304,354.4840467
2.263355282,354.4705624
2.261615585,354.4427452
2.259381231,354.4254812
2.255165314,354.4996012
2.252932066,354.627292
2.251195095,354.7670267
2.263850165,354.4801827
2.26360342,354.4748188
2.248713709,354.9837164
2.248465571,355.0047873
2.254917175,354.508832
2.253180204,354.6091923
2.250946957,354.7889801
2.238788164,355.3221483
2.248961848,354.9638627
2.248217432,355.025182
2.254669036,354.5222499
2.253428343,354.5946432
2.250698818,354.8105765
2.239036303,355.3272006
2.238540025,355.317932
2.245733022,355.1982958
2.245487907,355.2116291
2.249209986,354.9409643
2.247966991,355.0454636
2.254420898,354.5340286
2.253678606,354.575913
2.25045068,354.8323412
2.241021412,355.3375688
2.24126955,355.3361691
2.239284441,355.3304078
2.238294068,355.312892
2.245981161,355.1838153
2.245239768,355.2255339
2.249458125,354.920047
2.247718853,355.0657791
2.254172759,354.5477681
2.253926744,354.5607317
2.250202541,354.8538751
2.243254659,355.301566
2.243502798,355.2949772
2.240773273,355.3372801
2.241517689,355.3335924
2.23953258,355.3332019
2.238045929,355.3063786
2.246232323,355.1697527
2.24499163,355.2360376
2.249706688,354.897676
2.247473016,355.0838486
2.249954826,354.8766829
2.243006521,355.3085175
2.243750937,355.2870017
2.240525134,355.3386992
2.241765828,355.3303367
2.239780719,355.3359048
2.23779561,355.3011658
2.246480462,355.1523439
2.244743491,355.2478634
2.247224877,355.1030946
2.242758382,355.3138419
2.243999075,355.2762634
2.240279946,355.338873
2.242013966,355.3284213
2.240031808,355.3380364
2.237547471,355.2940156
2.244495353,355.2591808
2.2467286,355.137806
2.246976739,355.1192618
2.242510243,355.318645
2.244247214,355.269131
2.242262105,355.3234821
2.237299332,355.2883111
2.237051194,355.2804104
2.236803055,355.2733343
2.236554916,355.2660353
2.236306233,355.2603621
2.236058094,355.2528911
2.235810501,355.246444
2.235562362,355.2395105
2.235314223,355.2352311
2.235066085,355.2277073
2.234817946,355.2233446
2.234569807,355.2189036
2.234319704,355.2150561
2.234071565,355.2108814
2.233825392,355.2065323
2.233577253,355.2040599
2.233329114,355.2015571
2.233080976,355.1969347
2.232832837,355.1955399
2.232584698,355.1924339
2.232334392,355.1910515
2.232086253,355.1878504
2.231840283,355.1854732
2.231592144,355.181204
2.231344005,355.1793554
2.231095867,355.1747903
2.230847728,355.1724199
2.230599589,355.1659273
2.230351451,355.1607347
2.230103312,355.1568458
2.229855173,355.1495628
2.229607035,355.1437072
2.229358896,355.1379299
2.229110758,355.1300882
2.228862619,355.1218451
2.228616892,355.1146546
2.228368753,355.1075786
2.228118203,355.0971916
2.227870064,355.0907125
2.227621926,355.0804706
2.227373787,355.0727801
2.227125649,355.063785
2.22687751,355.0545834
2.226631737,355.0459233
2.226383599,355.0355919
2.226133094,355.0270712
2.225884955,355.0176634
2.225636817,355.0079912
2.225388678,354.9989102
2.22514054,354.9873599
2.224892401,354.9777819
2.224645474,354.9683991
2.224397335,354.9577749
2.224147985,354.9452484
2.223899846,354.935211
2.223651708,354.9234638
2.223403569,354.9132208
2.223155431,354.902164
2.222907292,354.8904661
2.222657639,354.8790413
2.2224095,354.8677202
2.222162876,354.8560789
2.221914737,354.8474149
2.221666599,354.835053
2.22141846,354.8257882
2.221170322,354.815588
2.220922183,354.8055223
2.220671496,354.7961332
2.220423357,354.786186
2.220177767,354.7780211
2.219929628,354.7707959
2.21968149,354.7609081
2.219433351,354.7546661
2.219185212,354.7459512
2.218937074,354.7403046
2.218688935,354.7359079
2.218440797,354.7286958
2.218192658,354.722363
2.217944519,354.7190927
2.217696381,354.7129533
2.217448242,354.7101379
2.217200103,354.7070559
2.216951965,354.7031242
2.216703826,354.7012992
2.216455688,354.6980877
2.216207549,354.6966227
2.21595941,354.694841
2.215711272,354.6929928
2.215463133,354.6908627
2.215214994,354.6905662
2.214968914,354.6893149
2.214720775,354.6879649
2.214470579,354.6877022
2.21422244,354.6860476
2.213974301,354.6846922
2.213726163,354.6849591
2.213478024,354.6836951
2.213229885,354.6826512
2.212984715,354.6808824
2.212736577,354.6802983
2.21248547,354.6793643
2.212237331,354.6786458
2.211989192,354.6753461
2.211741054,354.6736939
2.211492915,354.6717828
2.211244776,354.6698211
2.21099688,354.6685207
2.210748741,354.6656231
2.210500361,354.662774
2.210252222,354.6602185
2.210004083,354.6591341
2.209755945,354.6554983
2.209507806,354.652446
2.209259667,354.6510448
2.209009045,354.6496447
2.208760906,354.6464465
2.208515251,354.6456345
2.208267113,354.6437118
2.208018974,354.643404
2.207770836,354.6417509
2.207522697,354.641764
2.207274558,354.6418204
2.207023287,354.6427269
2.206775148,354.6421732
2.206530142,354.6439739
2.206282004,354.644341
2.206033865,354.6472013
2.205785727,354.6471448
2.205537588,354.6492394
2.205289449,354.6510729
2.205041311,354.6544098
2.204793172,354.6580563
2.204545033,354.660332
2.204296895,354.6613723
2.204048756,354.6670843
2.203800618,354.6719941
2.203552479,354.6733114
2.20330434,354.678792
2.203056202,354.684962
2.202808063,354.6900464
2.202559924,354.6960729
2.202311786,354.7028512
2.202063647,354.7100963
2.201815509,354.7183975
2.20156737,354.7272449
2.201322072,354.7345932
2.201073933,354.7444103
2.200822954,354.7530413
2.200574815,354.7628791
2.200326677,354.7727582
2.200078538,354.7822717
2.1998304,354.7936741
2.199582261,354.802952
2.199336121,354.8142553
2.199087983,354.8247749
2.198837845,354.8370286
2.198589706,354.8476141
2.198341568,354.8592413
2.198093429,354.8714637
2.19784529,354.8827298
2.197597152,354.896023
2.197348286,354.9074913
2.197100148,354.9223552
2.196852736,354.9336211
2.196604597,354.9482014
2.196356459,354.9618724
2.19610832,354.9757327
2.195860181,354.9920174
2.195612043,355.0058179
2.19536183,355.0210235
2.195113692,355.0373306
2.194867627,355.0526131
2.117197944,356.9365138
2.117446082,356.9320665
2.117696514,356.9290689
2.117944652,356.9246367
2.118192791,356.9196699
2.11844093,356.9146743
2.118689068,356.9092168
2.118937207,356.9022968
2.119184255,356.8980347
2.119432394,356.8904872
2.119681623,356.884728
2.119929761,356.8786673
2.1201779,356.8725844
2.120426039,356.8666129
2.120674177,356.859892
2.120922316,356.8531621
2.12117209,356.8489439
2.121420229,356.8418989
2.121666732,356.8370403
2.12191487,356.8299858
2.122163009,356.8254552
2.122411148,356.8189059
2.122659286,356.8146362
2.122907425,356.8091318
2.123158185,356.8050244
2.123406323,356.7991835
2.123651841,356.7953141
2.123899979,356.7923129
2.124148118,356.7878624
2.124396257,356.7834751
2.124644395,356.7821905
2.124892534,356.7793784
2.125143239,356.7774081
2.125391378,356.7742344
2.12563695,356.7744695
2.125885088,356.7750475
2.126133227,356.7748571
2.126381366,356.7743271
2.126629504,356.7761076
2.126877643,356.7780378
2.127125782,356.780515
2.129607168,356.8327153
2.129855306,356.8394689
2.12737392,356.7834922
2.129359029,356.8251995
2.130103445,356.8480384
2.127622059,356.7876513
2.129108877,356.8197117
2.130351584,356.855106
2.143999208,356.7361969
2.144247347,356.723764
2.137795743,356.9931461
2.138043881,356.9908149
2.127870197,356.7907605
2.128860738,356.8128088
2.130599722,356.8634575
2.14375107,356.7500916
2.144493607,356.7105905
2.137547604,356.9952859
2.13829202,356.9856265
2.131344138,356.8866358
2.131093152,356.878132
2.128118336,356.7954759
2.128614613,356.8058513
2.130845014,356.8709244
2.151691506,356.401164
2.151443367,356.4129482
2.140773406,356.9078763
2.141021545,356.8964104
2.143502931,356.7629534
2.144741746,356.697579
2.134321802,356.9710178
2.13456994,356.9772711
2.137299465,356.9985551
2.138540158,356.9809227
2.131592277,356.8945686
2.128366475,356.8012303
2.151939644,356.3913277
2.151195228,356.4230716
2.148217565,356.5430804
2.148467851,356.532946
2.140525267,356.9188931
2.141269683,356.8850985
2.145736179,356.6485377
2.145984317,356.6383434
2.143254792,356.7767362
2.144991763,356.684997
2.134073663,356.9657721
2.134820684,356.9826578
2.137053252,356.9987556
2.138788297,356.9769004
2.132584831,356.9239149
2.132832849,356.932488
2.131840416,356.9012495
2.152187783,356.378215
2.15094709,356.4339251
2.147969426,356.5531091
2.148715989,356.523782
2.140277129,356.9298112
2.141517822,356.8708246
2.14548804,356.6609897
2.146232456,356.6265914
2.143006654,356.789459
2.145239901,356.6737659
2.133825525,356.9596566
2.135068823,356.9861021
2.139036436,356.9716791
2.136805114,356.9998092
2.132336693,356.9180781
2.133080987,356.9385108
2.132088554,356.9099439
2.152435922,356.3667789
2.15070123,356.4446974
2.147721288,356.5616712
2.148961981,356.5138209
2.14002899,356.9403179
2.141765961,356.8574447
2.146481443,356.6152098
2.142755748,356.8042818
2.133577386,356.9527376
2.135314356,356.991332
2.139284574,356.9626455
2.136555049,357.0013117
2.133329247,356.9470087
2.15268406,356.3556789
2.150453091,356.4550338
2.147473149,356.5738788
2.149210119,356.5046283
2.139780852,356.9483578
2.142014099,356.845196
2.142507609,356.8178142
2.146729581,356.6035316
2.139532713,356.9565424
2.135562495,356.9939574
2.136306911,356.9996923
2.152932199,356.3434505
2.150202674,356.4647611
2.14722501,356.5836744
2.149458258,356.4945166
2.146976872,356.5933248
2.142262238,356.8316425
2.135810634,356.9962432
2.136058772,356.9981523
2.153180338,356.3315237
2.149954535,356.4755267
2.149706397,356.4848695
2.153428476,356.3201345
2.154168917,356.2852582
2.153923483,356.2973257
2.153676615,356.3084089
2.154418326,356.2736384
2.154669169,356.2632385
2.154917308,356.2510339
2.155165447,356.2405242
2.155413585,356.230708
2.155661724,356.2213762
2.155909862,356.2106903
2.156155818,356.2027794
2.156403956,356.1933264
2.156654278,356.1855674
2.156902417,356.1772088
2.157150556,356.1729689
2.157398694,356.1673406
2.157646833,356.164024
2.157894971,356.160609
2.158142201,356.1558944
2.15839034,356.1552029
2.158639387,356.1529317
2.158887526,356.1525774
2.159135665,356.1526306
2.159383803,356.1532329
2.159631942,356.1537437
2.15988008,356.1570598
2.160130037,356.1606364
2.160378175,356.1644502
2.160624496,356.1688837
2.160872635,356.1744445
2.161120774,356.1807761
2.161368912,356.1868381
2.161617051,356.1937604
2.161865189,356.201213
2.162116059,356.2102288
2.162364198,356.2172479
2.162609605,356.2273069
2.162857744,356.236954
2.163105883,356.2477482
2.163354021,356.2578224
2.16360216,356.2689139
2.163850298,356.2810715
2.164098437,356.2938341
2.164346576,356.3060677
2.164594714,356.3210511
2.164842853,356.3333459
2.165090992,356.3484519
2.16533913,356.3627913
2.165587269,356.3789603
2.165835408,356.3921956
2.166083546,356.4084997
2.166331685,356.4224749
2.166579823,356.4382707
2.166827962,356.4540002
2.167076101,356.4694371
2.167324239,356.483277
2.167572378,356.4987936
2.167818569,356.5132805
2.168066708,356.5292194
2.168316794,356.5420211
2.168564932,356.557167
2.168813071,356.5695051
2.16906121,356.5821353
2.169309348,356.59527
2.169557487,356.6059491
2.16980296,356.6162523
2.170051099,356.6280257
2.170301903,356.6360853
2.170550041,356.6454549
2.17079818,356.6528612
2.171046319,356.658978
2.171294457,356.6648271
2.171542596,356.6708609
2.171790795,356.6733091
2.172038934,356.6771275
2.172287012,356.6797431
2.17253515,356.6801854
2.172783289,356.6795965
2.173031428,356.680323
2.173279566,356.6796462
2.173527705,356.6754058
2.17377863,356.6748177
2.174026769,356.6697429
2.174272121,356.6655301
2.174520259,356.658901
2.174768398,356.6535341
2.175016537,356.6459255
2.175264675,356.6366145
2.175512814,356.6289469
2.175762944,356.6189669
2.176011083,356.6080267
2.17625723,356.5959924
2.176505369,356.584007
2.176753507,356.5691933
2.177001646,356.5564838
2.177249784,356.5398839
2.177497923,356.523969
2.177746062,356.5080238
2.1779942,356.4882848
2.178242339,356.4705546
2.178490478,356.4523337
2.178738616,356.4322842
2.178986755,356.4131623
2.179234893,356.3929109
2.179483032,356.3718015
2.179731171,356.3516736
2.179979309,356.3318795
2.180227448,356.3103861
2.180475587,356.2899338
2.180723725,356.2702744
2.180971864,356.2476934
2.181220002,356.2277354
2.181465483,356.2069577
2.181713622,356.1857419
2.181964418,356.1637052
2.182212557,356.1427046
2.182460696,356.1198144
2.182708834,356.0988171
2.182956973,356.0766568
2.183205111,356.0554253
2.183451554,356.0324892
2.183699693,356.0085512
2.183949527,355.9860267
2.184197666,355.963736
2.184445805,355.9394728
2.184693943,355.9156494
2.184942082,355.8919354
2.18519022,355.8704271
2.185439389,355.8447733
2.185687528,355.8216731
2.185934636,355.7987491
2.186182775,355.7739095
2.186430914,355.7518793
2.186679052,355.7287847
2.186927191,355.7056059
2.18717533,355.6826629
2.187425725,355.658715
2.187673863,355.6381151
2.187919745,355.6143018
2.188167884,355.5936282
2.188416023,355.5707493
2.188664161,355.5479834
2.1889123,355.5269415
2.189160439,355.5065283
2.189410922,355.4838739
2.189659061,355.4620098
2.189904854,355.4415273
2.190152993,355.4212371
2.190401132,355.3996485
2.19064927,355.3797956
2.190897409,355.3576751
2.191145548,355.3380171
2.191393686,355.318095
2.191641825,355.2976126
2.191889963,355.2770762
2.192138102,355.2571657
2.192386241,355.23778
2.192634379,355.2168672
2.192882518,355.1981419
2.193128422,355.1795
2.193376561,355.1597519
2.193626934,355.1417675
2.193875072,355.1230041
2.194123211,355.1046765
2.19437135,355.0882964
2.194619488,355.0702385
1.925637216,361.1747853
1.925885355,361.1736648
1.928118602,361.1344122
1.925389077,361.1746405
1.926133493,361.1731818
1.921418859,361.0833196
1.921170721,361.0723313
1.927870464,361.1418279
1.925140939,361.1744471
1.926382359,361.171254
1.921666998,361.092515
1.920922582,361.061803
1.927622325,361.1495323
1.9248928,361.1725602
1.926630497,361.1687519
1.921915136,361.1033991
1.920674443,361.0500087
1.922907691,361.1358862
1.92315583,361.1427276
1.927374186,361.1550965
1.924642662,361.1698846
1.926877909,361.1652558
1.906530542,360.5419437
1.906282403,360.5360188
1.922163275,361.1119298
1.920426305,361.0387272
1.922656712,361.1279807
1.923403968,361.1486516
1.924394523,361.1674409
1.927126048,361.161101
1.924148384,361.1637522
1.906034264,360.532433
1.90677868,360.544633
1.904049155,360.516197
1.904297294,360.5159885
1.916456087,360.8404623
1.916207948,360.8298404
1.918937473,360.9644285
1.919185612,360.9777763
1.922408573,361.1200986
1.920178166,361.0269403
1.923900245,361.160041
1.923652107,361.1545748
1.91074593,360.6434423
1.910994069,360.6512541
1.905786126,360.5287852
1.907026819,360.5504977
