Region: Body 1.Ramp1: Position[X] (m),Region: Body 1.Ramp1: Boundary Heat Flux (W/m^2)
2.116952098,265797.2893
2.116703959,265801.6201
2.116455821,265805.7
2.116207682,265809.2525
2.115959543,265812.7141
2.115711405,265814.9614
2.115463266,265817.0059
2.115215127,265817.7118
2.114966989,265818.3062
2.11471885,265818.4626
2.114470712,265817.3032
2.114222573,265816.2456
2.113974434,265813.3319
2.113726296,265810.8376
2.113478157,265807.4984
2.113230018,265803.2799
2.11298188,265799.5972
2.112733741,265793.9362
2.112485603,265789.1699
2.112237464,265783.321
2.111989325,265777.3028
2.111743399,265771.334
2.111495261,265764.8574
2.111244909,265758.1918
2.110996771,265751.5566
2.110748632,265745.0533
2.110500494,265737.8018
2.110252355,265731.4995
2.110004216,265724.843
2.109758115,265718.8839
2.109509977,265712.1564
2.1092598,265707.2071
2.109011662,265700.9791
2.108763523,265696.5875
2.108515385,265692.324
2.108267246,265687.5583
2.108019107,265684.3835
2.107771635,265682.3809
2.107523496,265680.5517
2.107274691,265678.8858
2.107026553,265677.7773
2.106778414,265678.717
2.106530275,265679.331
2.106282137,265681.4403
2.106033998,265684.2856
2.1057838,265687.9804
2.105535661,265691.7667
2.105289582,265696.9259
2.105041444,265702.2718
2.104793305,265708.385
2.104545166,265714.0366
2.104297028,265720.4406
2.104048889,265727.6028
2.103797873,265733.4738
2.103549735,265740.5413
2.103304473,265746.7012
2.103056335,265753.7369
2.102808196,265758.8419
2.102560057,265765.5752
2.102311919,265771.2783
2.10206378,265777.4301
2.101815642,265782.3671
2.101567503,265787.4214
2.101319364,265792.7942
2.101071226,265798.2787
2.100823087,265802.8081
2.100574948,265807.535
2.10032681,265812.1461
2.100078671,265817.4306
2.099830533,265822.5896
2.099582394,265827.3305
2.099334255,265832.1204
2.099086117,265838.2483
2.098837978,265843.6092
2.098589839,265850.1056
2.098341701,265855.7646
2.098096659,265862.9902
2.09784852,265869.7117
2.097597285,265877.4253
2.097349146,265884.7931
2.097101008,265893.5861
2.096852869,265901.8676
2.09660473,265911.2509
2.096356592,265920.8945
2.096110876,265930.2103
2.095862738,265940.8235
2.095612176,265950.9068
2.095364037,265962.3893
2.095115899,265973.5155
2.09486776,265984.2924
2.094619621,265996.9018
2.094371483,266008.1958
2.094123041,266020.3725
2.093874903,266032.0322
2.093627067,266043.7359
2.093378928,266056.0041
2.09313079,266067.0835
2.092882651,266078.801
2.092634512,266089.5991
2.092386374,266099.7814
2.092135206,266110.146
2.091887067,266119.2269
2.091641958,266128.3675
2.091393819,266135.9454
2.091145681,266142.8135
2.090897542,266148.8815
2.090649403,266153.5807
2.090401265,266157.3509
2.090151046,266161.1359
2.089902907,266163.2279
2.089656849,266163.8295
2.08940871,266165.1783
2.089160572,266164.3883
2.088912433,266163.19
2.088664294,266161.7824
2.088416156,266158.9707
2.088168017,266156.5748
2.087919878,266152.7186
2.08767174,266149.8555
2.087423601,266145.5152
2.087175463,266141.9357
2.086927324,266137.1927
2.086679185,266133.383
2.086433547,266128.8467
2.086185408,266125.1457
2.085934769,266120.3982
2.085686631,266115.9353
2.085438492,266112.7014
2.085190353,266108.793
2.084942215,266105.6677
2.084694076,266102.6712
2.084448449,266099.8444
2.084200311,266098.2018
2.08394966,266096.9144
2.083701522,266094.5016
2.083453383,266094.5381
2.083205244,266094.8153
2.082957106,266095.2318
2.082708967,266096.0203
2.082462282,266097.3059
2.082214144,266100.2467
2.081964551,266102.3138
2.081716413,266104.7672
2.081468274,266108.9223
2.081220135,266111.6658
2.080971997,266115.6516
2.080723858,266119.5357
2.080474447,266123.791
2.080226309,266127.5255
2.079979442,266131.9683
2.079731304,266135.8872
2.079483165,266139.8749
2.079235026,266143.4878
2.078986888,266147.6341
2.078738749,266151.084
2.078488208,266154.6588
2.07824007,266158.2467
2.077994333,266161.6182
2.077746195,266164.6656
2.077498056,266168.4326
2.077249917,266171.2155
2.258142977,263854.509
2.258391116,263857.8881
2.260376225,263894.1586
2.260624363,263899.9607
2.262609472,263947.3919
2.262361334,263941.5744
2.257894838,263851.4953
2.258639254,263861.6195
2.260128086,263888.4782
2.260872502,263905.2362
2.255909729,263842.3103
2.256157868,263841.6143
2.25218765,263947.0011
2.251942661,263961.3967
2.264594581,263986.9736
2.262857611,263952.9307
2.262113195,263935.3386
2.2576467,263850.0458
2.258887393,263865.3352
2.259879947,263883.4089
2.261120641,263911.5989
2.257398561,263847.0231
2.255661591,263843.291
2.256406007,263841.6362
2.257150423,263844.8487
2.252435789,263934.1131
2.251694523,263977.0275
2.264346443,263982.7915
2.26310575,263958.8169
2.261865056,263929.5356
2.259135532,263869.2069
2.25962937,263878.3736
2.261367446,263917.1693
2.255413452,263845.3645
2.256654145,263843.1955
2.256902284,263843.1473
2.252683927,263921.7638
2.251443234,263992.2766
2.264098304,263978.3107
2.263355282,263963.812
2.261615585,263923.848
2.259381231,263873.8026
2.255165314,263848.4937
2.252932066,263910.0903
2.251195095,264008.7509
2.263850165,263974.1277
2.26360342,263968.9016
2.248713709,264203.5977
2.248465571,264224.9629
2.254917175,263851.2259
2.253180204,263899.3422
2.250946957,264026.3517
2.238788164,264713.5218
2.248961848,264183.1308
2.248217432,264246.0833
2.254669036,263856.2638
2.253428343,263890.8196
2.250698818,264043.9733
2.239036303,264713.7983
2.238540025,264713.2856
2.245733022,264449.2698
2.245487907,264467.1916
2.249209986,264161.5428
2.247966991,264267.7204
2.254420898,263860.908
2.253678606,263880.8481
2.25045068,264062.4948
2.241021412,264686.2832
2.24126955,264679.7175
2.239284441,264712.5046
2.238294068,264712.2984
2.245981161,264430.7351
2.245239768,264485.2646
2.249458125,264141.3629
2.247718853,264289.1689
2.254172759,263867.2209
2.253926744,263873.4077
2.250202541,264081.385
2.243254659,264603.3446
2.243502798,264591.0471
2.240773273,264691.4441
2.241517689,264672.2364
2.23953258,264710.7562
2.238045929,264709.9938
2.246232323,264411.5766
2.24499163,264501.5612
2.249706688,264120.7607
2.247473016,264309.7649
2.249954826,264101.1736
2.243006521,264615.2193
2.243750937,264577.628
2.240525134,264696.9553
2.241765828,264664.3506
2.239780719,264708.4801
2.23779561,264707.7857
2.246480462,264391.3526
2.244743491,264518.2261
2.247224877,264331.2009
2.242758382,264626.5315
2.243999075,264563.0396
2.240279946,264701.4163
2.242013966,264656.4981
2.240031808,264705.5248
2.237547471,264704.367
2.244495353,264534.1247
2.2467286,264372.1356
2.246976739,264351.1912
2.242510243,264636.9402
2.244247214,264549.4953
2.242262105,264646.5235
2.237299332,264701.1148
2.237051194,264696.4309
2.236803055,264691.4691
2.236554916,264686.1186
2.236306233,264681.0138
2.236058094,264674.8803
2.235810501,264668.8239
2.235562362,264662.3154
2.235314223,264656.6716
2.235066085,264649.4146
2.234817946,264643.7364
2.234569807,264637.6875
2.234319704,264631.882
2.234071565,264626.4301
2.233825392,264620.8682
2.233577253,264616.2585
2.233329114,264611.9828
2.233080976,264606.9522
2.232832837,264603.6039
2.232584698,264599.5501
2.232334392,264596.7443
2.232086253,264593.4928
2.231840283,264590.8682
2.231592144,264587.5681
2.231344005,264585.3223
2.231095867,264582.2848
2.230847728,264580.2113
2.230599589,264576.6748
2.230351451,264573.3271
2.230103312,264570.6163
2.229855173,264566.5019
2.229607035,264562.4779
2.229358896,264558.6405
2.229110758,264553.7703
2.228862619,264548.2007
2.228616892,264543.1157
2.228368753,264537.468
2.228118203,264530.4173
2.227870064,264524.6455
2.227621926,264517.0003
2.227373787,264510.2038
2.227125649,264502.7784
2.22687751,264494.71
2.226631737,264487.328
2.226383599,264478.4311
2.226133094,264470.4123
2.225884955,264461.7709
2.225636817,264452.9861
2.225388678,264444.3806
2.22514054,264434.5907
2.224892401,264425.2423
2.224645474,264416.0899
2.224397335,264406.2535
2.224147985,264395.4132
2.223899846,264385.3763
2.223651708,264374.3435
2.223403569,264363.6464
2.223155431,264352.6936
2.222907292,264341.1092
2.222657639,264329.3822
2.2224095,264317.6694
2.222162876,264305.3237
2.221914737,264294.2163
2.221666599,264281.5194
2.22141846,264269.9219
2.221170322,264257.7872
2.220922183,264245.7921
2.220671496,264233.813
2.220423357,264221.799
2.220177767,264210.3343
2.219929628,264199.4687
2.21968149,264187.457
2.219433351,264177.1667
2.219185212,264165.6621
2.218937074,264155.5651
2.218688935,264146.2429
2.218440797,264136.2617
2.218192658,264126.2537
2.217944519,264118.1461
2.217696381,264108.8161
2.217448242,264101.2039
2.217200103,264093.73
2.216951965,264086.1205
2.216703826,264079.9332
2.216455688,264073.039
2.216207549,264067.473
2.21595941,264062.0138
2.215711272,264056.8644
2.215463133,264051.7708
2.215214994,264047.5876
2.214968914,264043.7534
2.214720775,264039.5861
2.214470579,264036.3518
2.21422244,264032.7439
2.213974301,264029.3293
2.213726163,264026.8367
2.213478024,264023.9002
2.213229885,264021.0379
2.212984715,264018.2455
2.212736577,264015.5744
2.21248547,264012.9894
2.212237331,264010.7298
2.211989192,264007.3371
2.211741054,264004.5187
2.211492915,264001.5261
2.211244776,263998.312
2.21099688,263995.4838
2.210748741,263991.8884
2.210500361,263988.1419
2.210252222,263984.2203
2.210004083,263980.8348
2.209755945,263976.5673
2.209507806,263971.8543
2.209259667,263967.9043
2.209009045,263963.7053
2.208760906,263958.8227
2.208515251,263954.675
2.208267113,263950.1331
2.208018974,263946.1164
2.207770836,263941.5497
2.207522697,263937.6493
2.207274558,263933.7608
2.207023287,263930.3414
2.206775148,263926.4684
2.206530142,263923.5929
2.206282004,263920.1841
2.206033865,263918.2077
2.205785727,263915.1355
2.205537588,263912.756
2.205289449,263910.2239
2.205041311,263908.7229
2.204793172,263907.6709
2.204545033,263906.0408
2.204296895,263903.4686
2.204048756,263903.372
2.203800618,263903.3678
2.203552479,263901.6483
2.20330434,263901.1379
2.203056202,263901.765
2.202808063,263902.1338
2.202559924,263902.5629
2.202311786,263903.6082
2.202063647,263905.1567
2.201815509,263907.3478
2.20156737,263910.2875
2.201322072,263912.813
2.201073933,263916.7476
2.200822954,263920.3994
2.200574815,263924.8443
2.200326677,263929.5495
2.200078538,263934.2965
2.1998304,263940.3615
2.199582261,263945.5253
2.199336121,263951.5889
2.199087983,263957.7448
2.198837845,263964.8699
2.198589706,263971.4206
2.198341568,263978.2277
2.198093429,263985.8465
2.19784529,263993.0075
2.197597152,264001.1538
2.197348286,264008.5249
2.197100148,264017.8058
2.196852736,264025.3332
2.196604597,264034.6007
2.196356459,264043.5162
2.19610832,264052.5331
2.195860181,264062.9562
2.195612043,264072.4394
2.19536183,264082.8162
2.195113692,264093.4446
2.194867627,264104.1866
2.117197944,265792.5665
2.117446082,265786.6845
2.117696514,265781.5741
2.117944652,265775.8339
2.118192791,265769.926
2.11844093,265764.0072
2.118689068,265758.3002
2.118937207,265752.1482
2.119184255,265747.2131
2.119432394,265740.7745
2.119681623,265735.6609
2.119929761,265730.4378
2.1201779,265725.3995
2.120426039,265720.5034
2.120674177,265715.6549
2.120922316,265710.8959
2.12117209,265707.5948
2.121420229,265702.8352
2.121666732,265699.6306
2.12191487,265695.6681
2.122163009,265692.9932
2.122411148,265689.8167
2.122659286,265688.085
2.122907425,265686.0414
2.123158185,265684.5424
2.123406323,265683.0682
2.123651841,265682.9215
2.123899979,265683.138
2.124148118,265682.9287
2.124396257,265683.764
2.124644395,265686.0999
2.124892534,265687.9795
2.125143239,265690.5
2.125391378,265693.3288
2.12563695,265697.6145
2.125885088,265702.2639
2.126133227,265706.8974
2.126381366,265711.866
2.126629504,265718.0928
2.126877643,265724.416
2.127125782,265731.2903
2.129607168,265813.8645
2.129855306,265822.4854
2.12737392,265738.3414
2.129359029,265804.9055
2.130103445,265831.5009
2.127622059,265746.1107
2.129108877,265796.3689
2.130351584,265839.8074
2.143999208,265594.0558
2.144247347,265582.9974
2.137795743,265896.0386
2.138043881,265888.328
2.127870197,265753.6915
2.128860738,265787.7016
2.130599722,265848.2865
2.14375107,265605.8097
2.144493607,265571.8642
2.137547604,265903.0504
2.13829202,265879.0095
2.131344138,265872.2245
2.131093152,265863.9542
2.128118336,265761.8273
2.128614613,265778.5936
2.130845014,265856.4563
2.151691506,265299.6804
2.151443367,265310.0863
2.140773406,265762.1879
2.141021545,265748.6633
2.143502931,265617.3579
2.144741746,265561.1862
2.134321802,265935.4162
2.13456994,265937.7108
2.137299465,265910.2927
2.138540158,265870.0057
2.131592277,265879.6497
2.128366475,265770.4409
2.151939644,265290.2296
2.151195228,265319.7657
2.148217565,265431.8122
2.148467851,265422.875
2.140525267,265775.5936
2.141269683,265735.1618
2.145736179,265520.5829
2.145984317,265511.6352
2.143254792,265629.7119
2.144991763,265550.5808
2.134073663,265933.1863
2.134820684,265938.8494
2.137053252,265915.8737
2.138788297,265860.4589
2.132584831,265905.7657
2.132832849,265912.2508
2.131840416,265886.4069
2.152187783,265279.6542
2.15094709,265329.7933
2.147969426,265440.6423
2.148715989,265414.3859
2.140277129,265789.0433
2.141517822,265720.9139
2.14548804,265530.5175
2.146232456,265502.11
2.143006654,265641.5605
2.145239901,265540.8215
2.133825525,265930.0697
2.135068823,265938.7658
2.139036436,265850.0211
2.136805114,265921.0969
2.132336693,265900.2977
2.133080987,265916.7574
2.132088554,265893.6931
2.152435922,265270.0181
2.15070123,265339.6632
2.147721288,265448.561
2.148961981,265405.4591
2.14002899,265802.3586
2.141765961,265707.2145
2.146481443,265492.8645
2.142755748,265654.8462
2.133577386,265926.1131
2.135314356,265939.0632
2.139284574,265837.9592
2.136555049,265926.4349
2.133329247,265922.4103
2.15268406,265260.5312
2.150453091,265349.572
2.147473149,265457.9423
2.149210119,265396.5977
2.139780852,265814.6726
2.142014099,265694.0765
2.142507609,265667.4257
2.146729581,265483.7256
2.139532713,265827.1341
2.135562495,265937.7099
2.136306911,265930.0741
2.152932199,265251.0031
2.150202674,265359.0442
2.14722501,265466.6353
2.149458258,265387.3353
2.146976872,265475.004
2.142262238,265680.7744
2.135810634,265935.8485
2.136058772,265933.261
2.153180338,265241.7554
2.149954535,265368.8818
2.149706397,265378.208
2.153428476,265233.0282
2.154168917,265208.4713
2.153923483,265216.4532
2.153676615,265224.4706
2.154418326,265201.3229
2.154669169,265194.7516
2.154917308,265188.1027
2.155165447,265182.7387
2.155413585,265178.3166
2.155661724,265174.1964
2.155909862,265170.1005
2.156155818,265168.2973
2.156403956,265166.2634
2.156654278,265165.7989
2.156902417,265165.4137
2.157150556,265167.6295
2.157398694,265169.3285
2.157646833,265172.2244
2.157894971,265175.5163
2.158142201,265178.8363
2.15839034,265184.5025
2.158639387,265189.8249
2.158887526,265196.3539
2.159135665,265203.2836
2.159383803,265211.0238
2.159631942,265218.9362
2.15988008,265228.4987
2.160130037,265238.2724
2.160378175,265248.3406
2.160624496,265258.7662
2.160872635,265270.129
2.161120774,265281.8205
2.161368912,265293.6989
2.161617051,265306.0648
2.161865189,265319.0352
2.162116059,265332.7142
2.162364198,265345.9999
2.162609605,265360.1607
2.162857744,265374.7311
2.163105883,265389.7715
2.163354021,265404.5767
2.16360216,265420.0167
2.163850298,265435.8898
2.164098437,265451.7776
2.164346576,265467.5083
2.164594714,265484.2709
2.164842853,265499.6045
2.165090992,265516.0942
2.16533913,265531.8603
2.165587269,265548.1716
2.165835408,265562.8412
2.166083546,265578.7899
2.166331685,265593.2066
2.166579823,265608.0411
2.166827962,265622.2492
2.167076101,265636.0524
2.167324239,265648.6835
2.167572378,265661.4572
2.167818569,265673.2105
2.168066708,265684.7337
2.168316794,265694.6171
2.168564932,265704.8379
2.168813071,265713.0598
2.16906121,265721.0471
2.169309348,265728.2422
2.169557487,265733.9032
2.16980296,265738.8804
2.170051099,265743.555
2.170301903,265746.0122
2.170550041,265748.59
2.17079818,265749.6546
2.171046319,265749.4655
2.171294457,265748.7592
2.171542596,265747.5469
2.171790795,265744.0416
2.172038934,265740.8369
2.172287012,265736.3472
2.17253515,265730.6031
2.172783289,265723.979
2.173031428,265717.3282
2.173279566,265709.1418
2.173527705,265699.2972
2.17377863,265690.2589
2.174026769,265678.6817
2.174272121,265667.57
2.174520259,265654.9846
2.174768398,265642.0932
2.175016537,265628.0192
2.175264675,265612.8468
2.175512814,265597.9884
2.175762944,265581.4951
2.176011083,265564.2813
2.17625723,265546.835
2.176505369,265528.6306
2.176753507,265509.0984
2.177001646,265490.4503
2.177249784,265469.8226
2.177497923,265449.6312
2.177746062,265429.3126
2.1779942,265407.5736
2.178242339,265386.7977
2.178490478,265365.7675
2.178738616,265344.0299
2.178986755,265322.8414
2.179234893,265301.3099
2.179483032,265279.6718
2.179731171,265258.2924
2.179979309,265237.2234
2.180227448,265215.4746
2.180475587,265194.2709
2.180723725,265173.161
2.180971864,265151.019
2.181220002,265130.0098
2.181465483,265108.503
2.181713622,265086.9605
2.181964418,265064.448
2.182212557,265042.9961
2.182460696,265020.5494
2.182708834,264998.7627
2.182956973,264976.5918
2.183205111,264954.7299
2.183451554,264932.1912
2.183699693,264909.715
2.183949527,264887.3376
2.184197666,264865.5186
2.184445805,264842.9396
2.184693943,264820.7685
2.184942082,264798.919
2.18519022,264777.9045
2.185439389,264755.4474
2.185687528,264734.2695
2.185934636,264713.4295
2.186182775,264692.0685
2.186430914,264671.7994
2.186679052,264651.3825
2.186927191,264630.9542
2.18717533,264610.9569
2.187425725,264590.6643
2.187673863,264571.8036
2.187919745,264551.8211
2.188167884,264533.4276
2.188416023,264513.993
2.188664161,264494.9361
2.1889123,264476.7057
2.189160439,264458.6751
2.189410922,264439.8374
2.189659061,264421.5861
2.189904854,264404.2622
2.190152993,264386.7957
2.190401132,264368.974
2.19064927,264352.0792
2.190897409,264334.4443
2.191145548,264318.0342
2.191393686,264301.4935
2.191641825,264285.0744
2.191889963,264268.893
2.192138102,264253.1572
2.192386241,264237.8606
2.192634379,264222.2203
2.192882518,264208.0017
2.193128422,264193.6381
2.193376561,264179.4539
2.193626934,264166.0498
2.193875072,264152.7275
2.194123211,264139.9036
2.19437135,264128.0371
2.194619488,264115.7495
1.925637216,269180.1402
1.925885355,269173.9408
1.928118602,269084.0835
1.925389077,269185.5163
1.926133493,269167.2584
1.921418859,269171.4458
1.921170721,269164.3728
1.927870464,269096.495
1.925140939,269190.4486
1.926382359,269159.4115
1.921666998,269177.4296
1.920922582,269157.1363
1.927622325,269108.8959
1.9248928,269194.2744
1.926630497,269150.7248
1.921915136,269183.4435
1.920674443,269148.6551
1.922907691,269198.6457
1.92315583,269200.633
1.927374186,269120.0668
1.924642662,269197.16
1.926877909,269141.2703
1.906530542,268547.2906
1.906282403,268538.3319
1.922163275,269188.0003
1.920426305,269140.1806
1.922656712,269195.5938
1.923403968,269201.8523
1.924394523,269199.8497
1.927126048,269131.2459
1.924148384,269201.4276
1.906034264,268530.0776
1.90677868,268554.9754
1.904049155,268470.6111
1.904297294,268477.0818
1.916456087,268950.854
1.916207948,268938.0326
1.918937473,269077.8716
1.919185612,269089.3345
1.922408573,269192.1725
1.920178166,269130.9907
1.923900245,269202.4432
1.923652107,269202.5759
1.91074593,268698.9256
1.910994069,268708.2396
1.905786126,268522.0409
1.907026819,268564.0919
