x (mm),Q (W/m2)
0,6.13E+06
0.0994524,4.62E+06
0.199899,2.67E+06
0.301351,2.03E+06
0.403817,1.67E+06
0.507307,1.43E+06
0.611832,1.26E+06
0.717403,1.13E+06
0.82403,1.03E+06
0.931722,9.53E+05
1.04049,8.89E+05
1.15035,8.35E+05
1.26131,7.89E+05
1.37337,7.49E+05
1.48656,7.14E+05
1.60087,6.83E+05
1.71634,6.55E+05
1.83295,6.30E+05
1.95073,6.07E+05
2.06969,5.86E+05
2.18984,5.67E+05
2.31119,5.49E+05
2.43376,5.32E+05
2.55755,5.17E+05
2.68258,5.03E+05
2.80885,4.90E+05
2.93639,4.77E+05
3.06521,4.65E+05
3.19531,4.54E+05
3.32672,4.44E+05
3.45944,4.34E+05
3.59349,4.25E+05
3.72887,4.16E+05
3.86561,4.07E+05
4.00372,3.99E+05
4.14321,3.92E+05
4.2841,3.84E+05
4.42639,3.77E+05
4.57011,3.70E+05
4.71526,3.64E+05
4.86187,3.58E+05
5.00994,3.52E+05
5.15949,3.46E+05
5.31054,3.41E+05
5.46309,3.36E+05
5.61718,3.30E+05
5.7728,3.26E+05
5.92998,3.21E+05
6.08873,3.16E+05
6.24907,3.12E+05
6.41102,3.08E+05
6.57458,3.04E+05
6.73978,3.00E+05
6.90663,2.96E+05
7.07515,2.93E+05
7.24535,2.89E+05
7.41726,2.86E+05
7.59088,2.82E+05
7.76624,2.79E+05
7.94336,2.76E+05
8.12224,2.73E+05
8.30292,2.71E+05
8.4854,2.68E+05
8.66971,2.65E+05
8.85585,2.63E+05
9.04387,2.60E+05
9.23376,2.58E+05
9.42555,2.55E+05
9.61925,2.53E+05
9.8149,2.51E+05
10.0125,2.49E+05
10.2121,2.47E+05
10.4137,2.45E+05
10.6172,2.43E+05
10.8229,2.41E+05
11.0305,2.39E+05
11.2403,2.38E+05
11.4522,2.36E+05
11.6661,2.34E+05
11.8822,2.33E+05
12.1005,2.31E+05
12.321,2.29E+05
12.5436,2.28E+05
12.7685,2.27E+05
12.9957,2.25E+05
13.2251,2.24E+05
13.4568,2.22E+05
13.6908,2.21E+05
13.9272,2.20E+05
14.1659,2.18E+05
14.407,2.17E+05
14.6505,2.16E+05
14.8965,2.15E+05
15.1449,2.14E+05
15.3958,2.12E+05
15.6492,2.11E+05
15.9051,2.10E+05
16.1637,2.09E+05
16.4247,2.08E+05
16.6884,2.07E+05
16.9548,2.06E+05
17.2238,2.05E+05
17.4955,2.04E+05
17.7699,2.03E+05
18.047,2.02E+05
18.3269,2.01E+05
18.6097,2.00E+05
18.8952,1.99E+05
19.1836,1.98E+05
19.4749,1.97E+05
19.7691,1.96E+05
20.0663,1.95E+05
20.3664,1.94E+05
20.6695,1.93E+05
20.9756,1.92E+05
21.2848,1.92E+05
21.5971,1.91E+05
21.9126,1.90E+05
22.2311,1.89E+05
22.5529,1.88E+05
22.8779,1.87E+05
23.2061,1.86E+05
23.5376,1.86E+05
23.8725,1.85E+05
24.2106,1.84E+05
24.5522,1.83E+05
24.8972,1.82E+05
25.2456,1.82E+05
25.5975,1.81E+05
25.9529,1.80E+05
26.3119,1.79E+05
26.6745,1.79E+05
27.0407,1.78E+05
27.4105,1.77E+05
27.7841,1.76E+05
28.1614,1.76E+05
28.5425,1.75E+05
28.9273,1.74E+05
29.3161,1.73E+05
29.7087,1.73E+05
30.1052,1.72E+05
30.5057,1.71E+05
30.9102,1.71E+05
31.3188,1.70E+05
31.7314,1.69E+05
32.1482,1.69E+05
32.5691,1.68E+05
32.9943,1.67E+05
33.4237,1.67E+05
33.8574,1.66E+05
34.2954,1.66E+05
34.7378,1.65E+05
35.1846,1.64E+05
35.6359,1.64E+05
36.0917,1.63E+05
36.5521,1.62E+05
37.0171,1.62E+05
37.4867,1.61E+05
37.961,1.61E+05
38.4401,1.60E+05
38.9239,1.60E+05
39.4126,1.59E+05
39.9062,1.58E+05
40.4047,1.58E+05
40.9082,1.57E+05
41.4167,1.57E+05
41.9304,1.56E+05
42.4491,1.56E+05
42.9731,1.55E+05
43.5023,1.55E+05
44.0367,1.54E+05
44.5765,1.54E+05
45.1218,1.53E+05
45.6724,1.52E+05
46.2286,1.52E+05
46.7904,1.51E+05
47.3577,1.51E+05
47.9307,1.50E+05
48.5095,1.50E+05
49.094,1.49E+05
49.6844,1.49E+05
50.2807,1.48E+05
50.883,1.48E+05
51.4913,1.48E+05
52.1056,1.47E+05
52.7261,1.47E+05
53.3529,1.46E+05
53.9858,1.46E+05
54.6252,1.45E+05
55.2709,1.45E+05
55.923,1.44E+05
56.5817,1.44E+05
57.247,1.43E+05
57.9096,1.43E+05
58.5721,1.43E+05
59.2347,1.42E+05
59.8973,1.42E+05
60.5599,1.41E+05
61.2225,1.41E+05
61.8851,1.41E+05
62.5477,1.40E+05
63.2102,1.40E+05
63.8728,1.39E+05
64.5354,1.39E+05
65.198,1.39E+05
65.8606,1.38E+05
66.5232,1.38E+05
67.1858,1.38E+05
67.8483,1.37E+05
68.5109,1.37E+05
69.1735,1.37E+05
69.8361,1.36E+05
70.4987,1.36E+05
71.1613,1.36E+05
71.8239,1.35E+05
72.4865,1.35E+05
73.149,1.35E+05
73.8116,1.35E+05
74.4742,1.34E+05
75.1368,1.34E+05
75.7994,1.34E+05
76.462,1.33E+05
77.1246,1.33E+05
77.7871,1.33E+05
78.4497,1.33E+05
79.1123,1.32E+05
79.7749,1.32E+05
80.4375,1.32E+05
81.1001,1.32E+05
81.7627,1.31E+05
82.4253,1.31E+05
83.0878,1.31E+05
83.7504,1.31E+05
84.413,1.30E+05
85.0756,1.30E+05
85.7382,1.30E+05
86.4008,1.30E+05
87.0633,1.29E+05
87.7259,1.29E+05
88.3885,1.29E+05
89.0511,1.29E+05
89.7137,1.28E+05
90.3763,1.28E+05
91.0389,1.28E+05
91.7015,1.28E+05
92.364,1.28E+05
93.0266,1.27E+05
93.6892,1.27E+05
94.3518,1.27E+05
95.0144,1.27E+05
95.677,1.27E+05
96.3396,1.26E+05
97.0021,1.26E+05
97.6647,1.26E+05
98.3273,1.26E+05
98.9899,1.26E+05
99.6525,1.25E+05
100.315,1.25E+05
100.978,1.25E+05
101.64,1.25E+05
102.303,1.25E+05
102.965,1.25E+05
103.628,1.24E+05
104.291,1.24E+05
104.953,1.24E+05
105.616,1.24E+05
106.278,1.24E+05
106.941,1.24E+05
107.604,1.23E+05
108.266,1.23E+05
108.929,1.23E+05
109.591,1.23E+05
110.254,1.23E+05
110.916,1.23E+05
111.579,1.22E+05
112.242,1.22E+05
112.904,1.22E+05
113.567,1.22E+05
114.229,1.22E+05
114.892,1.22E+05
115.555,1.22E+05
116.217,1.21E+05
116.88,1.21E+05
117.542,1.21E+05
118.205,1.21E+05
118.867,1.21E+05
119.53,1.21E+05
120.193,1.21E+05
120.855,1.20E+05
121.518,1.20E+05
122.18,1.20E+05
122.843,1.20E+05
123.506,1.20E+05
124.168,1.20E+05
124.831,1.20E+05
125.493,1.19E+05
126.156,1.19E+05
126.819,1.19E+05
127.481,1.19E+05
128.144,1.19E+05
128.806,1.19E+05
129.469,1.19E+05
130.131,1.19E+05
130.794,1.18E+05
131.457,1.18E+05
132.119,1.18E+05
132.782,1.18E+05
133.444,1.18E+05
134.107,1.18E+05
134.77,1.18E+05
135.432,1.18E+05
136.095,1.17E+05
136.757,1.17E+05
137.42,1.17E+05
138.082,1.17E+05
138.745,1.17E+05
139.408,1.17E+05
140.07,1.17E+05
140.733,1.17E+05
141.395,1.17E+05
142.058,1.16E+05
142.721,1.16E+05
143.383,1.16E+05
144.046,1.16E+05
144.708,1.16E+05
145.371,1.16E+05
146.034,1.16E+05
146.696,1.16E+05
147.359,1.16E+05
148.021,1.16E+05
148.684,1.15E+05
149.346,1.15E+05
150.009,1.15E+05
150.672,1.15E+05
151.334,1.15E+05
151.997,1.15E+05
152.659,1.15E+05
153.322,1.15E+05
153.985,1.15E+05
154.647,1.15E+05
155.31,1.14E+05
155.972,1.14E+05
156.635,1.14E+05
157.297,1.14E+05
157.96,1.14E+05
158.623,1.14E+05
159.285,1.14E+05
159.948,1.14E+05
160.61,1.14E+05
161.273,1.14E+05
161.936,1.14E+05
162.598,1.13E+05
163.261,1.13E+05
163.923,1.13E+05
164.586,1.13E+05
165.249,1.13E+05
165.911,1.13E+05
166.574,1.13E+05
167.236,1.13E+05
167.899,1.13E+05
168.561,1.13E+05
169.224,1.13E+05
169.887,1.13E+05
170.549,1.12E+05
171.212,1.12E+05
171.874,1.12E+05
172.537,1.12E+05
173.2,1.12E+05
173.862,1.12E+05
174.525,1.12E+05
175.187,1.12E+05
175.85,1.12E+05
176.512,1.12E+05
177.175,1.12E+05
177.838,1.12E+05
178.5,1.11E+05
179.163,1.11E+05
179.825,1.11E+05
180.488,1.11E+05
181.151,1.11E+05
181.813,1.11E+05
182.476,1.11E+05
183.138,1.11E+05
183.801,1.11E+05
184.464,1.11E+05
185.126,1.11E+05
185.789,1.11E+05
186.451,1.11E+05
187.114,1.11E+05
187.776,1.10E+05
188.439,1.10E+05
189.102,1.10E+05
189.102,1.10E+05
189.764,1.10E+05
190.427,1.10E+05
191.089,1.10E+05
191.752,1.10E+05
192.415,1.10E+05
193.077,1.10E+05
193.74,1.10E+05
194.402,1.10E+05
195.065,1.10E+05
195.727,1.10E+05
196.39,1.10E+05
197.053,1.09E+05
197.715,1.09E+05
198.378,1.09E+05
199.04,1.09E+05
199.703,1.09E+05
200.366,1.09E+05
201.028,1.09E+05
201.691,1.09E+05
202.353,1.09E+05
203.016,1.09E+05
203.679,1.09E+05
204.341,1.09E+05
205.004,1.09E+05
205.666,1.09E+05
206.329,1.09E+05
206.991,1.09E+05
207.654,1.08E+05
208.317,1.08E+05
208.979,1.08E+05
209.642,1.08E+05
210.304,1.08E+05
210.967,1.08E+05
211.63,1.08E+05
212.292,1.08E+05
212.955,1.08E+05
213.617,1.08E+05
214.28,1.08E+05
214.942,1.08E+05
215.605,1.08E+05
216.268,1.08E+05
216.93,1.08E+05
217.593,1.08E+05
218.255,1.08E+05
218.918,1.07E+05
219.581,1.07E+05
220.243,1.07E+05
220.906,1.07E+05
221.568,1.07E+05
222.231,1.07E+05
222.894,1.07E+05
223.556,1.07E+05
224.219,1.07E+05
224.881,1.07E+05
225.544,1.07E+05
226.206,1.07E+05
226.869,1.07E+05
227.532,1.07E+05
228.194,1.07E+05
228.857,1.07E+05
229.519,1.07E+05
230.182,1.07E+05
230.845,1.06E+05
231.507,1.06E+05
232.17,1.06E+05
232.832,1.06E+05
233.495,1.06E+05
234.158,1.06E+05
234.82,1.06E+05
235.483,1.06E+05
236.145,1.06E+05
236.808,1.06E+05
237.47,1.06E+05
238.133,1.06E+05
238.796,1.06E+05
239.458,1.06E+05
240.121,1.06E+05
240.783,1.06E+05
241.446,1.06E+05
242.109,1.06E+05
242.771,1.06E+05
243.434,1.06E+05
244.096,1.05E+05
244.759,1.05E+05
245.421,1.05E+05
246.084,1.05E+05
246.747,1.05E+05
247.409,1.05E+05
248.072,1.05E+05
248.734,1.05E+05
249.397,1.05E+05
250.06,1.05E+05
250.722,1.05E+05
251.385,1.05E+05
252.047,1.05E+05
252.71,1.05E+05
253.372,1.05E+05
254.035,1.05E+05
254.698,1.05E+05
255.36,1.05E+05
256.023,1.05E+05
256.685,1.05E+05
257.348,1.05E+05
258.011,1.04E+05
258.673,1.04E+05
259.336,1.04E+05
259.998,1.04E+05
260.661,1.04E+05
261.324,1.04E+05
261.986,1.04E+05
262.649,1.04E+05
263.311,1.04E+05
263.974,1.04E+05
264.636,1.04E+05
265.299,1.04E+05
265.962,1.04E+05
266.624,1.04E+05
267.287,1.04E+05
267.949,1.04E+05
268.612,1.04E+05
269.275,1.04E+05
269.937,1.04E+05
270.6,1.04E+05
271.262,1.04E+05
271.925,1.04E+05
272.588,1.03E+05
273.25,1.03E+05
273.913,1.03E+05
274.575,1.03E+05
275.238,1.03E+05
275.9,1.03E+05
276.563,1.03E+05
277.226,1.03E+05
277.888,1.03E+05
278.551,1.03E+05
279.213,1.03E+05
279.876,1.03E+05
280.539,1.03E+05
281.201,1.03E+05
281.864,1.03E+05
282.526,1.03E+05
283.189,1.03E+05
283.851,1.03E+05
284.514,1.03E+05
285.177,1.03E+05
285.839,1.03E+05
286.502,1.03E+05
287.164,1.03E+05
287.827,1.03E+05
288.49,1.03E+05
289.152,1.02E+05
289.815,1.02E+05
290.477,1.02E+05
291.14,1.02E+05
291.802,1.02E+05
292.465,1.02E+05
293.128,1.02E+05
293.79,1.02E+05
294.453,1.02E+05
295.115,1.02E+05
295.778,1.02E+05
296.441,1.02E+05
297.103,1.02E+05
297.766,1.02E+05
298.428,1.02E+05
299.091,1.02E+05
299.754,1.02E+05
300.416,1.02E+05
301.079,1.02E+05
301.741,1.02E+05
302.404,1.02E+05
303.066,1.02E+05
303.729,1.02E+05
304.392,1.02E+05
305.054,1.02E+05
305.717,1.02E+05
306.379,1.02E+05
307.042,1.01E+05
307.705,1.01E+05
308.367,1.01E+05
309.03,1.01E+05
309.692,1.01E+05
310.355,1.01E+05
311.018,1.01E+05
311.68,1.01E+05
312.343,1.01E+05
313.005,1.01E+05
313.668,1.01E+05
314.33,1.01E+05
314.993,1.01E+05
315.656,1.01E+05
316.318,1.01E+05
316.981,1.01E+05
317.643,1.01E+05
318.306,1.01E+05
318.969,1.01E+05
319.631,1.01E+05
320.294,1.01E+05
320.956,1.01E+05
321.619,1.01E+05
322.281,1.01E+05
322.944,1.01E+05
323.607,1.01E+05
324.269,1.01E+05
324.932,1.01E+05
325.594,1.01E+05
326.257,1.00E+05
326.92,1.00E+05
327.582,1.00E+05
328.245,1.00E+05
328.907,1.00E+05
329.57,1.00E+05
330.233,1.00E+05
330.895,1.00E+05
331.558,1.00E+05
332.22,1.00E+05
332.883,1.00E+05
333.545,1.00E+05
334.208,1.00E+05
334.871,1.00E+05
335.533,1.00E+05
336.196,1.00E+05
336.858,1.00E+05
337.521,9.99E+04
338.184,9.99E+04
338.846,9.99E+04
339.509,9.98E+04
340.171,9.98E+04
340.834,9.98E+04
341.496,9.97E+04
342.159,9.97E+04
342.822,9.97E+04
343.484,9.96E+04
344.147,9.96E+04
344.809,9.96E+04
345.472,9.95E+04
346.135,9.95E+04
346.797,9.95E+04
347.46,9.95E+04
348.122,9.94E+04
348.785,9.94E+04
349.448,9.94E+04
350.11,9.93E+04
350.773,9.93E+04
351.435,9.93E+04
352.098,9.92E+04
352.76,9.92E+04
353.423,9.92E+04
354.086,9.92E+04
354.748,9.91E+04
355.411,9.91E+04
356.073,9.91E+04
356.736,9.90E+04
357.399,9.90E+04
358.061,9.90E+04
358.724,9.89E+04
359.386,9.89E+04
360.049,9.89E+04
360.711,9.89E+04
361.374,9.88E+04
362.037,9.88E+04
362.699,9.88E+04
363.362,9.87E+04
364.024,9.87E+04
364.687,9.87E+04
365.35,9.87E+04
366.012,9.86E+04
366.675,9.86E+04
367.337,9.86E+04
368,9.85E+04
368.663,9.85E+04
369.325,9.85E+04
369.988,9.85E+04
370.65,9.84E+04
371.313,9.84E+04
371.975,9.84E+04
372.638,9.83E+04
373.301,9.83E+04
373.963,9.83E+04
374.626,9.83E+04
375.288,9.82E+04
375.951,9.82E+04
376.614,9.82E+04
377.276,9.81E+04
377.939,9.81E+04
378.601,9.81E+04
379.264,9.81E+04
379.926,9.80E+04
380.589,9.80E+04
381.252,9.80E+04
381.914,9.80E+04
382.577,9.79E+04
383.239,9.79E+04
383.902,9.79E+04
384.565,9.78E+04
385.227,9.78E+04
385.89,9.78E+04
386.552,9.78E+04
387.215,9.77E+04
387.878,9.77E+04
388.54,9.77E+04
389.203,9.77E+04
389.865,9.76E+04
390.528,9.76E+04
391.19,9.76E+04
391.853,9.76E+04
392.516,9.75E+04
393.178,9.75E+04
393.841,9.75E+04
394.503,9.74E+04
395.166,9.74E+04
395.829,9.74E+04
396.491,9.74E+04
397.154,9.73E+04
397.816,9.73E+04
398.479,9.73E+04
399.141,9.73E+04
399.804,9.72E+04
400.467,9.72E+04
401.129,9.72E+04
401.792,9.72E+04
402.454,9.71E+04
403.117,9.71E+04
403.78,9.71E+04
404.442,9.71E+04
405.105,9.70E+04
405.767,9.70E+04
406.43,9.70E+04
407.093,9.70E+04
407.755,9.69E+04
408.418,9.69E+04
409.08,9.69E+04
409.743,9.69E+04
410.405,9.68E+04
411.068,9.68E+04
411.731,9.68E+04
412.393,9.68E+04
413.056,9.67E+04
413.718,9.67E+04
414.381,9.67E+04
415.044,9.67E+04
415.706,9.66E+04
416.369,9.66E+04
417.031,9.66E+04
417.694,9.66E+04
418.356,9.66E+04
419.019,9.65E+04
419.682,9.65E+04
420.344,9.65E+04
421.007,9.65E+04
421.669,9.64E+04
422.332,9.64E+04
422.995,9.64E+04
423.657,9.64E+04
424.32,9.63E+04
424.982,9.63E+04
425.645,9.63E+04
426.307,9.63E+04
426.97,9.63E+04
427.633,9.62E+04
428.295,9.62E+04
428.958,9.62E+04
429.62,9.62E+04
430.283,9.61E+04
430.946,9.61E+04
431.608,9.61E+04
432.271,9.61E+04
432.933,9.60E+04
433.596,9.60E+04
434.259,9.60E+04
434.921,9.60E+04
435.584,9.60E+04
436.246,9.59E+04
436.909,9.59E+04
437.571,9.59E+04
438.234,9.59E+04
438.897,9.58E+04
439.559,9.58E+04
440.222,9.58E+04
440.884,9.58E+04
441.547,9.57E+04
442.21,9.57E+04
442.872,9.57E+04
443.535,9.57E+04
444.197,9.57E+04
444.86,9.56E+04
445.523,9.56E+04
446.185,9.56E+04
446.848,9.56E+04
447.51,9.55E+04
448.173,9.55E+04
448.835,9.55E+04
449.498,9.55E+04
450.161,9.55E+04
450.823,9.54E+04
451.486,9.54E+04
452.148,9.54E+04
452.811,9.54E+04
453.474,9.53E+04
454.136,9.53E+04
454.799,9.53E+04
455.461,9.53E+04
456.124,9.53E+04
456.786,9.52E+04
457.449,9.52E+04
458.112,9.52E+04
458.774,9.52E+04
459.437,9.52E+04
460.099,9.51E+04
460.762,9.51E+04
461.425,9.51E+04
462.087,9.51E+04
462.75,9.50E+04
463.412,9.50E+04
464.075,9.50E+04
464.738,9.50E+04
465.4,9.50E+04
466.063,9.49E+04
466.725,9.49E+04
467.388,9.49E+04
468.05,9.49E+04
468.713,9.49E+04
469.376,9.48E+04
470.038,9.48E+04
470.701,9.48E+04
471.363,9.48E+04
472.026,9.47E+04
472.689,9.47E+04
473.351,9.47E+04
474.014,9.47E+04
474.676,9.47E+04
475.339,9.46E+04
476.001,9.46E+04
476.664,9.46E+04
477.327,9.46E+04
477.989,9.46E+04
478.652,9.45E+04
479.314,9.45E+04
479.977,9.45E+04
480.64,9.45E+04
481.302,9.45E+04
481.965,9.44E+04
482.627,9.44E+04
483.29,9.44E+04
483.953,9.44E+04
484.615,9.44E+04
485.278,9.43E+04
485.94,9.43E+04
486.603,9.43E+04
487.265,9.43E+04
487.928,9.43E+04
488.591,9.42E+04
489.253,9.42E+04
489.916,9.42E+04
490.578,9.42E+04
491.241,9.42E+04
491.904,9.41E+04
492.566,9.41E+04
493.229,9.41E+04
493.891,9.41E+04
494.554,9.41E+04
495.216,9.40E+04
495.879,9.40E+04
496.542,9.40E+04
497.204,9.40E+04
497.867,9.40E+04
498.529,9.39E+04
499.192,9.39E+04
499.855,9.39E+04
500.517,9.39E+04
501.18,9.39E+04
501.842,9.38E+04
502.505,9.38E+04
503.168,9.38E+04
503.83,9.38E+04
503.83,9.38E+04
504.493,9.38E+04
505.155,9.37E+04
505.818,9.37E+04
506.48,9.37E+04
507.143,9.37E+04
507.806,9.37E+04
508.468,9.36E+04
509.131,9.36E+04
509.793,9.36E+04
510.456,9.36E+04
511.119,9.36E+04
511.781,9.35E+04
512.444,9.35E+04
513.106,9.35E+04
513.769,9.35E+04
514.431,9.35E+04
515.094,9.35E+04
515.757,9.34E+04
516.419,9.34E+04
517.082,9.34E+04
517.744,9.34E+04
518.407,9.34E+04
519.07,9.33E+04
519.732,9.33E+04
520.395,9.33E+04
521.057,9.33E+04
521.72,9.33E+04
522.382,9.32E+04
523.045,9.32E+04
523.708,9.32E+04
524.37,9.32E+04
525.033,9.32E+04
525.695,9.32E+04
526.358,9.31E+04
527.021,9.31E+04
527.683,9.31E+04
528.346,9.31E+04
529.008,9.31E+04
529.671,9.30E+04
530.334,9.30E+04
530.996,9.30E+04
531.659,9.30E+04
532.321,9.30E+04
532.984,9.30E+04
533.646,9.29E+04
534.309,9.29E+04
534.972,9.29E+04
535.634,9.29E+04
536.297,9.29E+04
536.959,9.28E+04
537.622,9.28E+04
538.285,9.28E+04
538.947,9.28E+04
539.61,9.28E+04
540.272,9.28E+04
540.935,9.27E+04
541.598,9.27E+04
542.26,9.27E+04
542.923,9.27E+04
543.585,9.27E+04
544.248,9.26E+04
544.91,9.26E+04
545.573,9.26E+04
546.236,9.26E+04
546.898,9.26E+04
547.561,9.26E+04
548.223,9.25E+04
548.886,9.25E+04
549.549,9.25E+04
550.211,9.25E+04
550.874,9.25E+04
551.536,9.25E+04
552.199,9.24E+04
552.862,9.24E+04
553.524,9.24E+04
554.187,9.24E+04
554.849,9.24E+04
555.512,9.24E+04
556.174,9.23E+04
556.837,9.23E+04
557.5,9.23E+04
558.162,9.23E+04
558.825,9.23E+04
559.487,9.22E+04
560.15,9.22E+04
560.813,9.22E+04
561.475,9.22E+04
562.138,9.22E+04
562.8,9.22E+04
563.463,9.21E+04
564.125,9.21E+04
564.788,9.21E+04
565.451,9.21E+04
566.113,9.21E+04
566.776,9.21E+04
567.438,9.20E+04
568.101,9.20E+04
568.764,9.20E+04
569.426,9.20E+04
570.089,9.20E+04
570.751,9.20E+04
571.414,9.19E+04
572.076,9.19E+04
572.739,9.19E+04
573.402,9.19E+04
574.064,9.19E+04
574.727,9.19E+04
575.389,9.18E+04
576.052,9.18E+04
576.715,9.18E+04
577.377,9.18E+04
578.04,9.18E+04
578.702,9.18E+04
579.365,9.17E+04
580.028,9.17E+04
580.69,9.17E+04
581.353,9.17E+04
582.015,9.17E+04
582.678,9.17E+04
583.34,9.16E+04
584.003,9.16E+04
584.666,9.16E+04
585.328,9.16E+04
585.991,9.16E+04
586.653,9.16E+04
587.316,9.15E+04
587.979,9.15E+04
588.641,9.15E+04
589.304,9.15E+04
589.966,9.15E+04
590.629,9.15E+04
591.291,9.14E+04
591.954,9.14E+04
592.617,9.14E+04
593.279,9.14E+04
593.942,9.14E+04
594.604,9.14E+04
595.267,9.13E+04
595.93,9.13E+04
596.592,9.13E+04
597.255,9.13E+04
597.917,9.13E+04
598.58,9.13E+04
599.243,9.13E+04
599.905,9.12E+04
600.568,9.12E+04
601.23,9.12E+04
601.893,9.12E+04
602.555,9.12E+04
603.218,9.12E+04
603.881,9.11E+04
604.543,9.11E+04
605.206,9.11E+04
605.868,9.11E+04
606.531,9.11E+04
607.194,9.11E+04
607.856,9.10E+04
608.519,9.10E+04
609.181,9.10E+04
609.844,9.10E+04
610.506,9.10E+04
611.169,9.10E+04
611.832,9.10E+04
612.494,9.09E+04
613.157,9.09E+04
613.819,9.09E+04
614.482,9.09E+04
615.145,9.09E+04
615.807,9.09E+04
616.47,9.08E+04
617.132,9.08E+04
617.795,9.08E+04
618.458,9.08E+04
619.12,9.08E+04
619.783,9.08E+04
620.445,9.08E+04
621.108,9.07E+04
621.77,9.07E+04
622.433,9.07E+04
623.096,9.07E+04
623.758,9.07E+04
624.421,9.07E+04
625.083,9.06E+04
625.746,9.06E+04
626.409,9.06E+04
627.071,9.06E+04
627.734,9.06E+04
628.396,9.06E+04
629.059,9.06E+04
629.722,9.05E+04
630.384,9.05E+04
631.047,9.05E+04
631.709,9.05E+04
632.372,9.05E+04
633.034,9.05E+04
633.697,9.05E+04
634.36,9.04E+04
635.022,9.04E+04
635.685,9.04E+04
636.347,9.04E+04
637.01,9.04E+04
637.673,9.04E+04
638.335,9.03E+04
638.998,9.03E+04
639.66,9.03E+04
640.323,9.03E+04
640.985,9.03E+04
641.648,9.03E+04
642.311,9.03E+04
642.973,9.02E+04
643.636,9.02E+04
644.298,9.02E+04
644.961,9.02E+04
645.624,9.02E+04
646.286,9.02E+04
646.949,9.02E+04
647.611,9.01E+04
648.274,9.01E+04
648.937,9.01E+04
649.599,9.01E+04
650.262,9.01E+04
650.924,9.01E+04
651.587,9.01E+04
652.249,9.00E+04
652.912,9.00E+04
653.575,9.00E+04
654.237,9.00E+04
654.9,9.00E+04
655.562,9.00E+04
656.225,9.00E+04
656.888,8.99E+04
657.55,8.99E+04
658.213,8.99E+04
658.875,8.99E+04
659.538,8.99E+04
660.2,8.99E+04
660.863,8.99E+04
661.526,8.98E+04
662.188,8.98E+04
662.851,8.98E+04
663.513,8.98E+04
664.176,8.98E+04
664.839,8.98E+04
665.501,8.98E+04
666.164,8.97E+04
666.826,8.97E+04
667.489,8.97E+04
668.151,8.97E+04
668.814,8.97E+04
669.477,8.97E+04
670.139,8.97E+04
670.802,8.96E+04
671.464,8.96E+04
672.127,8.96E+04
672.79,8.96E+04
673.452,8.96E+04
674.115,8.96E+04
674.777,8.96E+04
675.44,8.95E+04
676.103,8.95E+04
676.765,8.95E+04
677.428,8.95E+04
678.09,8.95E+04
678.753,8.95E+04
679.415,8.95E+04
680.078,8.95E+04
680.741,8.94E+04
681.403,8.94E+04
682.066,8.94E+04
682.728,8.94E+04
683.391,8.94E+04
684.054,8.94E+04
684.716,8.94E+04
685.379,8.93E+04
686.041,8.93E+04
686.704,8.93E+04
687.366,8.93E+04
688.029,8.93E+04
688.692,8.93E+04
689.354,8.93E+04
690.017,8.92E+04
690.679,8.92E+04
691.342,8.92E+04
692.005,8.92E+04
692.667,8.92E+04
693.33,8.92E+04
693.992,8.92E+04
694.655,8.92E+04
695.318,8.91E+04
695.98,8.91E+04
696.643,8.91E+04
697.305,8.91E+04
697.968,8.91E+04
698.63,8.91E+04
699.293,8.91E+04
699.956,8.90E+04
700.618,8.90E+04
701.281,8.90E+04
701.943,8.90E+04
702.606,8.90E+04
703.269,8.90E+04
703.931,8.90E+04
704.594,8.90E+04
705.256,8.89E+04
705.919,8.89E+04
706.581,8.89E+04
707.244,8.89E+04
707.907,8.89E+04
708.569,8.89E+04
709.232,8.89E+04
709.894,8.88E+04
710.557,8.88E+04
711.22,8.88E+04
