x (mm),Q (W/m2)
0,6102560
0.0994524,4601060
0.199899,2662740
0.301351,2023550
0.403817,1665770
0.507307,1424570
0.611832,1254100
0.717403,1126660
0.82403,1029000
0.931722,951491
1.04049,887975
1.15035,834642
1.26131,788988
1.37337,749291
1.48656,714337
1.60087,683244
1.71634,655348
1.83295,630137
1.95073,607213
2.06969,586258
2.18984,567016
2.31119,549272
2.43376,532845
2.55755,517581
2.68258,503347
2.80885,490034
2.93639,477547
3.06521,465805
3.19531,454736
3.32672,444282
3.45944,434388
3.59349,425008
3.72887,416097
3.86561,407614
4.00372,399527
4.14321,391808
4.2841,384434
4.42639,377382
4.57011,370631
4.71526,364160
4.86187,357951
5.00994,351988
5.15949,346252
5.31054,340730
5.46309,335406
5.61718,330272
5.7728,325319
5.92998,320539
6.08873,315923
6.24907,311462
6.41102,307149
6.57458,302975
6.73978,298935
6.90663,295021
7.07515,291228
7.24535,287551
7.41726,283987
7.59088,280534
7.76624,277188
7.94336,273944
8.12224,270796
8.30292,267738
8.4854,264768
8.66971,261883
8.85585,259082
9.04387,256365
9.23376,253730
9.42555,251176
9.61925,248701
9.8149,246304
10.0125,243981
10.2121,241728
10.4137,239544
10.6172,237425
10.8229,235371
11.0305,233380
11.2403,231455
11.4522,229596
11.6661,227800
11.8822,226066
12.1005,224391
12.321,222773
12.5436,221211
12.7685,219703
12.9957,218249
13.2251,216849
13.4568,215500
13.6908,214202
13.9272,212952
14.1659,211750
14.407,210594
14.6505,209483
14.8965,208413
15.1449,207383
15.3958,206391
15.6492,205435
15.9051,204515
16.1637,203631
16.4247,202780
16.6884,201960
16.9548,201170
17.2238,200406
17.4955,199666
17.7699,198947
18.047,198250
18.3269,197573
18.6097,196916
18.8952,196278
19.1836,195658
19.4749,195052
19.7691,194459
20.0663,193875
20.3664,193301
20.6695,192735
20.9756,192179
21.2848,191631
21.5971,191090
21.9126,190555
22.2311,190024
22.5529,189496
22.8779,188971
23.2061,188450
23.5376,187936
23.8725,187426
24.2106,186918
24.5522,186406
24.8972,185887
25.2456,185358
25.5975,184816
25.9529,184262
26.3119,183696
26.6745,183118
27.0407,182530
27.4105,181932
27.7841,181325
28.1614,180710
28.5425,180087
28.9273,179457
29.3161,178821
29.7087,178180
30.1052,177537
30.5057,176891
30.9102,176244
31.3188,175597
31.7314,174949
32.1482,174301
32.5691,173653
32.9943,173008
33.4237,172364
33.8574,171722
34.2954,171083
34.7378,170446
35.1846,169812
35.6359,169181
36.0917,168553
36.5521,167929
37.0171,167310
37.4867,166695
37.961,166086
38.4401,165482
38.9239,164882
39.4126,164285
39.9062,163692
40.4047,163105
40.9082,162525
41.4167,161951
41.9304,161383
42.4491,160816
42.9731,160253
43.5023,159696
44.0367,159147
44.5765,158607
45.1218,158073
45.6724,157541
46.2286,157009
46.7904,156479
47.3577,155958
47.9307,155450
48.5095,154954
49.094,154467
49.6844,153979
50.2807,153487
50.883,152992
51.4913,152501
52.1056,152022
52.7261,151560
53.3529,151112
53.9858,150670
54.6252,150227
55.2709,149777
55.923,149322
56.5817,148868
57.247,148423
57.9096,147999
58.5721,147594
59.2347,147204
59.8973,146822
60.5599,146442
61.2225,146061
61.8851,145677
62.5477,145295
63.2102,144919
63.8728,144552
64.5354,144199
65.198,143859
65.8606,143532
66.5232,143214
67.1858,142903
67.8483,142595
68.5109,142287
69.1735,141981
69.8361,141674
70.4987,141369
71.1613,141066
71.8239,140766
72.4865,140470
73.149,140181
73.8116,139899
74.4742,139627
75.1368,139364
75.7994,139109
76.462,138861
77.1246,138617
77.7871,138375
78.4497,138134
79.1123,137894
79.7749,137655
80.4375,137417
81.1001,137180
81.7627,136944
82.4253,136711
83.0878,136480
83.7504,136252
84.413,136028
85.0756,135807
85.7382,135591
86.4008,135379
87.0633,135171
87.7259,134967
88.3885,134766
89.0511,134568
89.7137,134371
90.3763,134174
91.0389,133976
91.7015,133777
92.364,133577
93.0266,133378
93.6892,133182
94.3518,132991
95.0144,132806
95.677,132627
96.3396,132454
97.0021,132284
97.6647,132115
98.3273,131944
98.9899,131773
99.6525,131600
100.315,131429
100.978,131259
101.64,131092
102.303,130928
102.965,130767
103.628,130609
104.291,130451
104.953,130295
105.616,130139
106.278,129985
106.941,129832
107.604,129681
108.266,129532
108.929,129385
109.591,129238
110.254,129093
110.916,128949
111.579,128806
112.242,128664
112.904,128523
113.567,128384
114.229,128247
114.892,128110
115.555,127975
116.217,127841
116.88,127708
117.542,127576
118.205,127445
118.867,127314
119.53,127185
120.193,127057
120.855,126931
121.518,126805
122.18,126681
122.843,126559
123.506,126437
124.168,126316
124.831,126197
125.493,126078
126.156,125960
126.819,125843
127.481,125726
128.144,125610
128.806,125495
129.469,125380
130.131,125266
130.794,125152
131.457,125040
132.119,124929
132.782,124820
133.444,124711
134.107,124603
134.77,124496
135.432,124390
136.095,124285
136.757,124180
137.42,124075
138.082,123972
138.745,123869
139.408,123767
140.07,123667
140.733,123567
141.395,123468
142.058,123369
142.721,123269
143.383,123170
144.046,123071
144.708,122972
145.371,122873
146.034,122776
146.696,122680
147.359,122586
148.021,122493
148.684,122402
149.346,122313
150.009,122223
150.672,122134
151.334,122044
151.997,121954
152.659,121863
153.322,121773
153.985,121682
154.647,121591
155.31,121501
155.972,121412
156.635,121324
157.297,121237
157.96,121152
158.623,121067
159.285,120983
159.948,120900
160.61,120818
161.273,120736
161.936,120654
162.598,120573
163.261,120492
163.923,120412
164.586,120332
165.249,120252
165.911,120173
166.574,120095
167.236,120017
167.899,119939
168.561,119861
169.224,119784
169.887,119706
170.549,119628
171.212,119550
171.874,119472
172.537,119394
173.2,119316
173.862,119239
174.525,119163
175.187,119088
175.85,119014
176.512,118942
177.175,118870
177.838,118800
178.5,118730
179.163,118660
179.825,118590
180.488,118520
181.151,118449
181.813,118378
182.476,118307
183.138,118236
183.801,118165
184.464,118095
185.126,118026
185.789,117957
186.451,117890
187.114,117822
187.776,117755
188.439,117688
189.102,117621
189.764,117554
190.427,117487
191.089,117421
191.752,117355
192.415,117289
193.077,117224
193.74,117159
194.402,117095
195.065,117031
195.727,116966
196.39,116902
197.053,116838
197.715,116775
198.378,116711
199.04,116648
199.703,116585
200.366,116522
201.028,116460
201.691,116398
202.353,116337
203.016,116276
203.679,116215
204.341,116154
205.004,116094
205.666,116034
206.329,115974
206.991,115915
207.654,115856
208.317,115797
208.979,115738
209.642,115680
210.304,115621
210.967,115563
211.63,115504
212.292,115446
212.955,115388
213.617,115330
214.28,115272
214.942,115215
215.605,115158
216.268,115102
216.93,115046
217.593,114991
218.255,114935
218.918,114880
219.581,114824
220.243,114768
220.906,114712
221.568,114656
222.231,114600
222.894,114545
223.556,114490
224.219,114435
224.881,114381
225.544,114328
226.206,114275
226.869,114223
227.532,114171
228.194,114119
228.857,114067
229.519,114016
230.182,113964
230.845,113912
231.507,113860
232.17,113808
232.832,113756
233.495,113704
234.158,113652
234.82,113600
235.483,113548
236.145,113497
236.808,113446
237.47,113395
238.133,113344
238.796,113294
239.458,113244
240.121,113194
240.783,113145
241.446,113095
242.109,113046
242.771,112997
243.434,112949
244.096,112901
244.759,112852
245.421,112804
246.084,112757
246.747,112709
247.409,112661
248.072,112613
248.734,112566
249.397,112518
250.06,112470
250.722,112422
251.385,112374
252.047,112327
252.71,112279
253.372,112231
254.035,112184
254.698,112136
255.36,112089
256.023,112043
256.685,111997
257.348,111951
258.011,111906
258.673,111861
259.336,111817
259.998,111773
260.661,111728
261.324,111684
261.986,111640
262.649,111595
263.311,111550
263.974,111505
264.636,111460
265.299,111415
265.962,111371
266.624,111326
267.287,111282
267.949,111238
268.612,111195
269.275,111152
269.937,111108
270.6,111065
271.262,111023
271.925,110980
272.588,110937
273.25,110894
273.913,110852
274.575,110809
275.238,110767
275.9,110724
276.563,110682
277.226,110640
277.888,110598
278.551,110556
279.213,110514
279.876,110473
280.539,110431
281.201,110390
281.864,110349
282.526,110308
283.189,110266
283.851,110225
284.514,110185
285.177,110144
285.839,110103
286.502,110063
287.164,110022
287.827,109982
288.49,109942
289.152,109902
289.815,109863
290.477,109823
291.14,109784
291.802,109745
292.465,109705
293.128,109666
293.79,109627
294.453,109588
295.115,109548
295.778,109509
296.441,109470
297.103,109430
297.766,109391
298.428,109352
299.091,109313
299.754,109275
300.416,109236
301.079,109198
301.741,109160
302.404,109122
303.066,109084
303.729,109046
304.392,109009
305.054,108972
305.717,108934
306.379,108897
307.042,108860
307.705,108823
308.367,108786
309.03,108749
309.692,108712
310.355,108675
311.018,108638
311.68,108602
312.343,108565
313.005,108529
313.668,108493
314.33,108456
314.993,108420
315.656,108384
316.318,108348
316.981,108313
317.643,108277
318.306,108241
318.969,108206
319.631,108171
320.294,108135
320.956,108100
321.619,108065
322.281,108029
322.944,107994
323.607,107958
324.269,107923
324.932,107888
325.594,107852
326.257,107817
326.92,107781
327.582,107746
328.245,107711
328.907,107677
329.57,107642
330.233,107608
330.895,107574
331.558,107540
332.22,107506
332.883,107473
333.545,107439
334.208,107406
334.871,107373
335.533,107340
336.196,107306
336.858,107273
337.521,107239
338.184,107206
338.846,107173
339.509,107139
340.171,107106
340.834,107073
341.496,107040
342.159,107007
342.822,106974
343.484,106942
344.147,106909
344.809,106877
345.472,106844
346.135,106812
346.797,106779
347.46,106747
348.122,106714
348.785,106682
349.448,106650
350.11,106617
350.773,106585
351.435,106553
352.098,106521
352.76,106489
353.423,106457
354.086,106426
354.748,106394
355.411,106363
356.073,106332
356.736,106300
357.399,106269
358.061,106238
358.724,106206
359.386,106175
360.049,106144
360.711,106113
361.374,106081
362.037,106050
362.699,106019
363.362,105989
364.024,105958
364.687,105927
365.35,105897
366.012,105867
366.675,105837
367.337,105807
368,105777
368.663,105747
369.325,105717
369.988,105688
370.65,105658
371.313,105629
371.975,105599
372.638,105570
373.301,105540
373.963,105511
374.626,105481
375.288,105451
375.951,105422
376.614,105392
377.276,105363
377.939,105334
378.601,105304
379.264,105275
379.926,105245
380.589,105216
381.252,105187
381.914,105158
382.577,105129
383.239,105099
383.902,105070
384.565,105041
385.227,105013
385.89,104984
386.552,104955
387.215,104926
387.878,104897
388.54,104869
389.203,104840
389.865,104812
390.528,104783
391.19,104755
391.853,104726
392.516,104698
393.178,104670
393.841,104642
394.503,104614
395.166,104586
395.829,104559
396.491,104531
397.154,104504
397.816,104477
398.479,104450
399.141,104423
399.804,104396
400.467,104369
401.129,104342
401.792,104315
402.454,104288
403.117,104261
403.78,104234
404.442,104207
405.105,104180
405.767,104153
406.43,104126
407.093,104099
407.755,104072
408.418,104046
409.08,104019
409.743,103993
410.405,103967
411.068,103941
411.731,103916
412.393,103890
413.056,103865
413.718,103839
414.381,103814
415.044,103789
415.706,103764
416.369,103738
417.031,103713
417.694,103688
418.356,103663
419.019,103637
419.682,103612
420.344,103587
421.007,103562
421.669,103537
422.332,103512
422.995,103486
423.657,103461
424.32,103436
424.982,103412
425.645,103387
426.307,103362
426.97,103337
427.633,103312
428.295,103288
428.958,103263
429.62,103239
430.283,103214
430.946,103189
431.608,103165
432.271,103140
432.933,103115
433.596,103091
434.259,103066
434.921,103041
435.584,103016
436.246,102992
436.909,102967
437.571,102943
438.234,102918
438.897,102894
439.559,102870
440.222,102845
440.884,102821
441.547,102797
442.21,102773
442.872,102749
443.535,102725
444.197,102702
444.86,102678
445.523,102653
446.185,102629
446.848,102605
447.51,102581
448.173,102557
448.835,102533
449.498,102509
450.161,102485
450.823,102461
451.486,102437
452.148,102413
452.811,102389
453.474,102366
454.136,102343
454.799,102319
455.461,102296
456.124,102273
456.786,102250
457.449,102227
458.112,102204
458.774,102181
459.437,102158
460.099,102135
460.762,102112
461.425,102089
462.087,102066
462.75,102043
463.412,102019
464.075,101996
464.738,101973
465.4,101950
466.063,101927
466.725,101904
467.388,101881
468.05,101858
468.713,101835
469.376,101812
470.038,101789
470.701,101767
471.363,101744
472.026,101722
472.689,101700
473.351,101677
474.014,101655
474.676,101633
475.339,101611
476.001,101589
476.664,101567
477.327,101545
477.989,101523
478.652,101501
479.314,101479
479.977,101457
480.64,101435
481.302,101413
481.965,101391
482.627,101369
483.29,101347
483.953,101325
484.615,101303
485.278,101281
485.94,101259
486.603,101237
487.265,101215
487.928,101193
488.591,101171
489.253,101149
489.916,101128
490.578,101106
491.241,101084
491.904,101062
492.566,101041
493.229,101019
493.891,100998
494.554,100976
495.216,100955
495.879,100934
496.542,100913
497.204,100891
497.867,100870
498.529,100849
499.192,100828
499.855,100807
500.517,100786
501.18,100765
501.842,100744
502.505,100724
503.168,100703
503.83,100682
504.493,100661
505.155,100640
505.818,100620
506.48,100599
507.143,100578
507.806,100558
508.468,100537
509.131,100516
509.793,100496
510.456,100475
510.456,100475
511.119,100455
511.781,100434
512.444,100414
513.106,100393
513.769,100373
514.431,100352
515.094,100332
515.757,100312
516.419,100291
517.082,100271
517.744,100251
518.407,100230
519.07,100210
519.732,100190
520.395,100170
521.057,100150
521.72,100130
522.382,100110
523.045,100089
523.708,100069
524.37,100049
525.033,100029
525.695,100010
526.358,99989.6
527.021,99969.7
527.683,99949.9
528.346,99930
529.008,99910.2
529.671,99890.4
530.334,99870.7
530.996,99851
531.659,99831.3
532.321,99811.6
532.984,99792
533.646,99772.3
534.309,99752.8
534.972,99733.2
535.634,99713.7
536.297,99694.2
536.959,99674.7
537.622,99655.3
538.285,99635.9
538.947,99616.5
539.61,99597.1
540.272,99577.8
540.935,99558.5
541.598,99539.2
542.26,99520
542.923,99500.8
543.585,99481.6
544.248,99462.4
544.91,99443.3
545.573,99424.2
546.236,99405.1
546.898,99386.1
547.561,99367.1
548.223,99348.1
548.886,99329.1
549.549,99310.2
550.211,99291.3
550.874,99272.4
551.536,99253.6
552.199,99234.8
552.862,99216
553.524,99197.2
554.187,99178.5
554.849,99159.8
555.512,99141.1
556.174,99122.4
556.837,99103.8
557.5,99085.2
558.162,99066.6
558.825,99048
559.487,99029.5
560.15,99011
560.813,98992.5
561.475,98974.1
562.138,98955.7
562.8,98937.3
563.463,98918.9
564.125,98900.6
564.788,98882.4
565.451,98864.1
566.113,98845.9
566.776,98827.8
567.438,98809.6
568.101,98791.5
568.764,98773.4
569.426,98755.4
570.089,98737.3
570.751,98719.3
571.414,98701.3
572.076,98683.4
572.739,98665.4
573.402,98647.4
574.064,98629.5
574.727,98611.5
575.389,98593.6
576.052,98575.7
576.715,98557.7
577.377,98539.8
578.04,98521.9
578.702,98504
579.365,98486.1
580.028,98468.2
580.69,98450.4
581.353,98432.5
582.015,98414.7
582.678,98396.9
583.34,98379.2
584.003,98361.4
584.666,98343.7
585.328,98326.1
585.991,98308.4
586.653,98290.9
587.316,98273.3
587.979,98255.8
588.641,98238.4
589.304,98220.9
589.966,98203.6
590.629,98186.2
591.291,98168.9
591.954,98151.7
592.617,98134.5
593.279,98117.3
593.942,98100.1
594.604,98083
595.267,98065.9
595.93,98048.8
596.592,98031.7
597.255,98014.6
597.917,97997.5
598.58,97980.5
599.243,97963.4
599.905,97946.3
600.568,97929.2
601.23,97912.1
601.893,97895
602.555,97878
603.218,97860.9
603.881,97843.8
604.543,97826.8
605.206,97809.8
605.868,97792.8
606.531,97775.9
607.194,97759
607.856,97742.1
608.519,97725.3
609.181,97708.6
609.844,97691.8
610.506,97675.1
611.169,97658.5
611.832,97641.9
612.494,97625.3
613.157,97608.7
613.819,97592.2
614.482,97575.6
615.145,97559.1
615.807,97542.6
616.47,97526.1
617.132,97509.6
617.795,97493.1
618.458,97476.6
619.12,97460.1
619.783,97443.6
620.445,97427.1
621.108,97410.6
621.77,97394.2
622.433,97377.7
623.096,97361.3
623.758,97344.9
624.421,97328.6
625.083,97312.3
625.746,97295.9
626.409,97279.7
627.071,97263.4
627.734,97247.2
628.396,97231
629.059,97214.8
629.722,97198.6
630.384,97182.5
631.047,97166.4
631.709,97150.3
632.372,97134.2
633.034,97118.2
633.697,97102.2
634.36,97086.2
635.022,97070.2
635.685,97054.2
636.347,97038.3
637.01,97022.4
637.673,97006.5
638.335,96990.6
638.998,96974.8
639.66,96959
640.323,96943.2
640.985,96927.4
641.648,96911.6
642.311,96895.9
642.973,96880.2
643.636,96864.5
644.298,96848.8
644.961,96833.2
645.624,96817.5
646.286,96801.9
646.949,96786.2
647.611,96770.6
648.274,96755
648.937,96739.5
649.599,96723.9
650.262,96708.4
650.924,96692.8
651.587,96677.3
652.249,96661.8
652.912,96646.4
653.575,96630.9
654.237,96615.5
654.9,96600.1
655.562,96584.7
656.225,96569.3
656.888,96553.9
657.55,96538.6
658.213,96523.2
658.875,96507.9
659.538,96492.6
660.2,96477.3
660.863,96462
661.526,96446.7
662.188,96431.5
662.851,96416.3
663.513,96401
664.176,96385.8
664.839,96370.7
665.501,96355.5
666.164,96340.4
666.826,96325.3
667.489,96310.3
668.151,96295.2
668.814,96280.2
669.477,96265.2
670.139,96250.2
670.802,96235.3
671.464,96220.3
672.127,96205.4
672.79,96190.5
673.452,96175.6
674.115,96160.8
674.777,96145.9
675.44,96131.1
676.103,96116.3
676.765,96101.5
677.428,96086.7
678.09,96071.9
678.753,96057.1
679.415,96042.4
680.078,96027.7
680.741,96013
681.403,95998.3
682.066,95983.7
682.728,95969
683.391,95954.4
684.054,95939.8
684.716,95925.1
685.379,95910.5
686.041,95896
686.704,95881.4
687.366,95866.8
688.029,95852.2
688.692,95837.6
689.354,95823
690.017,95808.5
690.679,95793.9
691.342,95779.3
692.005,95764.8
692.667,95750.3
693.33,95735.8
693.992,95721.3
694.655,95706.8
695.318,95692.4
695.98,95678
696.643,95663.6
697.305,95649.3
697.968,95635
698.63,95620.8
699.293,95606.5
699.956,95592.4
700.618,95578.2
701.281,95564.1
701.943,95550
702.606,95535.9
703.269,95521.8
703.931,95507.8
704.594,95493.7
705.256,95479.7
705.919,95465.6
706.581,95451.6
707.244,95437.5
707.907,95423.4
708.569,95409.4
709.232,95395.3
709.894,95381.2
710.557,95367.1
711.22,95353
711.882,95338.9
712.545,95324.8
713.207,95310.7
713.87,95296.6
714.533,95282.6
715.195,95268.5
715.858,95254.5
716.52,95240.5
717.183,95226.5
717.845,95212.6
718.508,95198.7
719.171,95184.8
719.833,95171
720.496,95157.2
721.158,95143.5
721.821,95129.8
722.484,95116.1
723.146,95102.5
723.809,95088.9
724.471,95075.3
725.134,95061.8
725.797,95048.3
726.459,95034.8
727.122,95021.3
727.784,95007.9
728.447,94994.4
729.109,94981
729.772,94967.6
730.435,94954.2
731.097,94940.8
731.76,94927.4
732.422,94914
733.085,94900.6
733.748,94887.2
734.41,94873.8
735.073,94860.4
735.735,94847
736.398,94833.6
737.06,94820.2
737.723,94806.8
738.386,94793.4
739.048,94779.9
739.711,94766.5
740.373,94753.1
741.036,94739.6
741.699,94726.2
742.361,94712.8
743.024,94699.4
743.686,94686
744.349,94672.6
745.012,94659.2
745.674,94645.9
746.337,94632.5
746.999,94619.2
747.662,94605.9
748.324,94592.5
748.987,94579.3
749.65,94566
750.312,94552.8
750.975,94539.6
751.637,94526.4
752.3,94513.2
752.963,94500.1
753.625,94486.9
754.288,94473.8
754.95,94460.7
755.613,94447.7
756.275,94434.6
756.938,94421.6
757.601,94408.6
758.263,94395.6
758.926,94382.6
759.588,94369.7
760.251,94356.7
760.914,94343.8
761.576,94330.9
762.239,94318
762.901,94305.2
763.564,94292.3
764.226,94279.5
764.889,94266.7
765.552,94253.9
766.214,94241.1
766.877,94228.3
767.539,94215.6
768.202,94202.8
768.865,94190.1
769.527,94177.4
770.19,94164.7
770.852,94152
771.515,94139.4
772.178,94126.7
772.84,94114.1
773.503,94101.4
774.165,94088.8
774.828,94076.2
775.49,94063.7
776.153,94051.1
776.816,94038.5
777.478,94026
778.141,94013.5
778.803,94001
779.466,93988.5
780.129,93976
780.791,93963.5
781.454,93951.1
782.116,93938.6
782.779,93926.2
783.441,93913.8
784.104,93901.4
784.767,93889
785.429,93876.7
786.092,93864.3
786.754,93852
787.417,93839.6
788.08,93827.3
788.742,93815
789.405,93802.7
790.067,93790.3
790.73,93778
791.393,93765.7
792.055,93753.4
792.718,93741.1
793.38,93728.7
794.043,93716.4
794.705,93704.1
795.368,93691.7
796.031,93679.4
796.693,93667.1
797.356,93654.7
798.018,93642.4
798.681,93630
799.344,93617.7
800.006,93605.3
800.669,93593
801.331,93580.7
801.994,93568.4
