x (mm),Q (W/m2)
0,3.85E+06
0.996904,3.40E+06
1.99381,2.42E+06
2.99071,1.35E+06
3.98762,6.41E+05
4.98452,4.12E+05
5.98142,3.00E+05
6.97833,2.40E+05
7.97523,2.08E+05
8.97214,1.91E+05
9.96904,1.84E+05
10.9659,1.81E+05
11.9628,1.79E+05
12.9598,1.79E+05
13.9567,1.77E+05
14.9536,1.74E+05
15.9505,1.71E+05
16.9474,1.67E+05
17.9443,1.64E+05
18.9412,1.61E+05
19.9381,1.58E+05
20.935,1.56E+05
21.9319,1.54E+05
22.9288,1.53E+05
23.9257,1.52E+05
24.9226,1.52E+05
25.9195,1.51E+05
26.9164,1.51E+05
27.9133,1.51E+05
28.9102,1.51E+05
29.9071,1.51E+05
30.904,1.51E+05
31.9009,1.51E+05
32.8978,1.51E+05
33.8947,1.52E+05
34.8916,1.53E+05
35.8885,1.53E+05
36.8855,1.54E+05
37.8824,1.55E+05
38.8793,1.55E+05
39.8762,1.55E+05
40.8731,1.55E+05
41.87,1.55E+05
42.8669,1.54E+05
43.8638,1.54E+05
44.8607,1.53E+05
45.8576,1.52E+05
46.8545,1.52E+05
47.8514,1.51E+05
48.8483,1.50E+05
49.8452,1.49E+05
50.8421,1.48E+05
51.839,1.48E+05
52.8359,1.47E+05
53.8328,1.46E+05
54.8297,1.45E+05
55.8266,1.45E+05
56.8235,1.44E+05
57.8204,1.43E+05
58.8173,1.42E+05
59.8142,1.42E+05
60.8112,1.41E+05
61.8081,1.40E+05
62.805,1.40E+05
63.8019,1.39E+05
64.7988,1.38E+05
65.7957,1.38E+05
66.7926,1.38E+05
67.7895,1.37E+05
68.7864,1.37E+05
69.7833,1.36E+05
70.7802,1.36E+05
71.7771,1.35E+05
72.774,1.35E+05
73.7709,1.34E+05
74.7678,1.34E+05
75.7647,1.33E+05
76.7616,1.33E+05
77.7585,1.32E+05
78.7554,1.32E+05
79.7523,1.32E+05
80.7492,1.31E+05
81.7461,1.31E+05
82.743,1.31E+05
83.74,1.30E+05
84.7369,1.30E+05
85.7338,1.30E+05
86.7307,1.29E+05
87.7276,1.29E+05
88.7245,1.28E+05
89.7214,1.28E+05
90.7183,1.28E+05
91.7152,1.27E+05
92.7121,1.27E+05
93.709,1.27E+05
94.7059,1.27E+05
95.7028,1.26E+05
96.6997,1.26E+05
97.6966,1.26E+05
98.6935,1.26E+05
99.6904,1.25E+05
100.687,1.25E+05
101.684,1.25E+05
102.681,1.24E+05
103.678,1.24E+05
104.675,1.24E+05
105.672,1.24E+05
106.669,1.23E+05
107.666,1.23E+05
108.663,1.23E+05
109.659,1.23E+05
110.656,1.22E+05
111.653,1.22E+05
112.65,1.22E+05
113.647,1.22E+05
114.644,1.22E+05
115.641,1.21E+05
116.638,1.21E+05
117.635,1.21E+05
118.632,1.21E+05
119.628,1.21E+05
120.625,1.20E+05
121.622,1.20E+05
122.619,1.20E+05
123.616,1.20E+05
124.613,1.19E+05
125.61,1.19E+05
126.607,1.19E+05
127.604,1.19E+05
128.601,1.19E+05
129.598,1.19E+05
130.594,1.18E+05
131.591,1.18E+05
132.588,1.18E+05
133.585,1.18E+05
134.582,1.18E+05
135.579,1.18E+05
136.576,1.17E+05
137.573,1.17E+05
138.57,1.17E+05
139.567,1.17E+05
140.563,1.17E+05
141.56,1.16E+05
142.557,1.16E+05
143.554,1.16E+05
144.551,1.16E+05
145.548,1.16E+05
146.545,1.16E+05
147.542,1.16E+05
148.539,1.15E+05
149.536,1.15E+05
150.533,1.15E+05
151.529,1.15E+05
152.526,1.15E+05
153.523,1.15E+05
154.52,1.15E+05
155.517,1.14E+05
156.514,1.14E+05
157.511,1.14E+05
158.508,1.14E+05
159.505,1.14E+05
160.502,1.14E+05
161.498,1.14E+05
162.495,1.13E+05
163.492,1.13E+05
164.489,1.13E+05
165.486,1.13E+05
166.483,1.13E+05
167.48,1.13E+05
168.477,1.13E+05
169.474,1.13E+05
170.471,1.12E+05
171.468,1.12E+05
172.464,1.12E+05
173.461,1.12E+05
174.458,1.12E+05
175.455,1.12E+05
176.452,1.12E+05
177.449,1.12E+05
178.446,1.12E+05
179.443,1.11E+05
180.44,1.11E+05
181.437,1.11E+05
182.433,1.11E+05
183.43,1.11E+05
184.427,1.11E+05
185.424,1.11E+05
186.421,1.11E+05
187.418,1.11E+05
188.415,1.11E+05
189.412,1.10E+05
190.409,1.10E+05
191.406,1.10E+05
192.402,1.10E+05
193.399,1.10E+05
194.396,1.10E+05
195.393,1.10E+05
196.39,1.10E+05
197.387,1.10E+05
198.384,1.10E+05
199.381,1.09E+05
200.378,1.09E+05
201.375,1.09E+05
202.372,1.09E+05
203.368,1.09E+05
203.368,1.09E+05
204.365,1.09E+05
205.362,1.09E+05
206.359,1.09E+05
207.356,1.09E+05
208.353,1.09E+05
209.35,1.09E+05
210.347,1.08E+05
211.344,1.08E+05
212.341,1.08E+05
213.337,1.08E+05
214.334,1.08E+05
215.331,1.08E+05
216.328,1.08E+05
217.325,1.08E+05
218.322,1.08E+05
219.319,1.08E+05
220.316,1.08E+05
221.313,1.08E+05
222.31,1.07E+05
223.307,1.07E+05
224.303,1.07E+05
225.3,1.07E+05
226.297,1.07E+05
227.294,1.07E+05
228.291,1.07E+05
229.288,1.07E+05
230.285,1.07E+05
231.282,1.07E+05
232.279,1.07E+05
233.276,1.07E+05
234.272,1.07E+05
235.269,1.06E+05
236.266,1.06E+05
237.263,1.06E+05
238.26,1.06E+05
239.257,1.06E+05
240.254,1.06E+05
241.251,1.06E+05
242.248,1.06E+05
243.245,1.06E+05
244.242,1.06E+05
245.238,1.06E+05
246.235,1.06E+05
247.232,1.06E+05
248.229,1.06E+05
249.226,1.05E+05
250.223,1.05E+05
251.22,1.05E+05
252.217,1.05E+05
253.214,1.05E+05
254.211,1.05E+05
255.207,1.05E+05
256.204,1.05E+05
257.201,1.05E+05
258.198,1.05E+05
259.195,1.05E+05
260.192,1.05E+05
261.189,1.05E+05
262.186,1.05E+05
263.183,1.05E+05
264.18,1.05E+05
265.177,1.04E+05
266.173,1.04E+05
267.17,1.04E+05
268.167,1.04E+05
269.164,1.04E+05
270.161,1.04E+05
271.158,1.04E+05
272.155,1.04E+05
273.152,1.04E+05
274.149,1.04E+05
275.146,1.04E+05
276.142,1.04E+05
277.139,1.04E+05
278.136,1.04E+05
279.133,1.04E+05
280.13,1.04E+05
281.127,1.04E+05
282.124,1.03E+05
283.121,1.03E+05
284.118,1.03E+05
285.115,1.03E+05
286.112,1.03E+05
287.108,1.03E+05
288.105,1.03E+05
289.102,1.03E+05
290.099,1.03E+05
291.096,1.03E+05
292.093,1.03E+05
293.09,1.03E+05
294.087,1.03E+05
295.084,1.03E+05
296.081,1.03E+05
297.077,1.03E+05
298.074,1.03E+05
299.071,1.03E+05
300.068,1.02E+05
301.065,1.02E+05
302.062,1.02E+05
303.059,1.02E+05
304.056,1.02E+05
305.053,1.02E+05
306.05,1.02E+05
307.046,1.02E+05
308.043,1.02E+05
309.04,1.02E+05
310.037,1.02E+05
311.034,1.02E+05
312.031,1.02E+05
313.028,1.02E+05
314.025,1.02E+05
315.022,1.02E+05
316.019,1.02E+05
317.016,1.02E+05
318.012,1.02E+05
319.009,1.02E+05
320.006,1.01E+05
321.003,1.01E+05
322,1.01E+05
322.997,1.01E+05
323.994,1.01E+05
324.991,1.01E+05
325.988,1.01E+05
326.985,1.01E+05
327.981,1.01E+05
328.978,1.01E+05
329.975,1.01E+05
330.972,1.01E+05
331.969,1.01E+05
332.966,1.01E+05
333.963,1.01E+05
333.963,1.01E+05
334.96,1.01E+05
335.957,1.01E+05
336.954,1.01E+05
337.95,1.01E+05
338.947,1.01E+05
339.944,1.01E+05
340.941,1.01E+05
341.938,1.00E+05
342.935,1.00E+05
343.932,1.00E+05
344.929,1.00E+05
345.926,1.00E+05
346.923,1.00E+05
347.92,1.00E+05
348.916,1.00E+05
349.913,1.00E+05
350.91,1.00E+05
351.907,1.00E+05
352.904,1.00E+05
353.901,1.00E+05
354.898,9.99E+04
355.895,9.99E+04
356.892,9.98E+04
357.889,9.98E+04
358.885,9.97E+04
359.882,9.97E+04
360.879,9.97E+04
361.876,9.96E+04
362.873,9.96E+04
363.87,9.95E+04
364.867,9.95E+04
365.864,9.94E+04
366.861,9.94E+04
367.858,9.94E+04
368.855,9.93E+04
369.851,9.93E+04
370.848,9.92E+04
371.845,9.92E+04
372.842,9.92E+04
373.839,9.91E+04
374.836,9.91E+04
375.833,9.91E+04
376.83,9.90E+04
377.827,9.90E+04
378.824,9.89E+04
379.82,9.89E+04
380.817,9.89E+04
381.814,9.88E+04
382.811,9.88E+04
383.808,9.87E+04
384.805,9.87E+04
385.802,9.87E+04
386.799,9.86E+04
387.796,9.86E+04
388.793,9.85E+04
389.79,9.85E+04
390.786,9.85E+04
391.783,9.84E+04
392.78,9.84E+04
393.777,9.84E+04
394.774,9.83E+04
395.771,9.83E+04
396.768,9.83E+04
397.765,9.82E+04
398.762,9.82E+04
399.759,9.81E+04
400.755,9.81E+04
401.752,9.80E+04
402.749,9.80E+04
403.746,9.80E+04
404.743,9.79E+04
405.74,9.79E+04
406.737,9.78E+04
407.734,9.78E+04
408.731,9.77E+04
409.728,9.77E+04
410.725,9.77E+04
411.721,9.76E+04
412.718,9.76E+04
413.715,9.76E+04
414.712,9.75E+04
415.709,9.75E+04
416.706,9.74E+04
417.703,9.74E+04
418.7,9.74E+04
419.697,9.73E+04
420.694,9.73E+04
421.69,9.72E+04
422.687,9.72E+04
423.684,9.72E+04
424.681,9.71E+04
425.678,9.71E+04
426.675,9.70E+04
427.672,9.70E+04
428.669,9.70E+04
429.666,9.69E+04
430.663,9.69E+04
431.659,9.69E+04
432.656,9.68E+04
433.653,9.68E+04
434.65,9.67E+04
435.647,9.67E+04
436.644,9.67E+04
437.641,9.66E+04
438.638,9.66E+04
439.635,9.66E+04
440.632,9.65E+04
441.629,9.65E+04
442.625,9.65E+04
443.622,9.64E+04
444.619,9.64E+04
445.616,9.63E+04
446.613,9.63E+04
447.61,9.62E+04
448.607,9.62E+04
449.604,9.62E+04
450.601,9.61E+04
451.598,9.61E+04
452.594,9.61E+04
453.591,9.60E+04
454.588,9.60E+04
455.585,9.59E+04
456.582,9.59E+04
457.579,9.59E+04
458.576,9.58E+04
459.573,9.58E+04
460.57,9.58E+04
461.567,9.57E+04
462.564,9.57E+04
463.56,9.57E+04
464.557,9.56E+04
465.554,9.56E+04
466.551,9.56E+04
467.548,9.55E+04
468.545,9.55E+04
469.542,9.55E+04
470.539,9.54E+04
471.536,9.54E+04
472.533,9.54E+04
473.529,9.53E+04
474.526,9.53E+04
475.523,9.53E+04
476.52,9.52E+04
477.517,9.52E+04
478.514,9.52E+04
479.511,9.52E+04
480.508,9.51E+04
481.505,9.51E+04
482.502,9.51E+04
483.499,9.50E+04
484.495,9.50E+04
485.492,9.50E+04
486.489,9.49E+04
487.486,9.49E+04
488.483,9.49E+04
489.48,9.48E+04
490.477,9.48E+04
491.474,9.48E+04
492.471,9.47E+04
493.468,9.47E+04
494.464,9.47E+04
495.461,9.46E+04
496.458,9.46E+04
497.455,9.46E+04
498.452,9.45E+04
499.449,9.45E+04
500.446,9.45E+04
501.443,9.45E+04
502.44,9.44E+04
503.437,9.44E+04
504.434,9.44E+04
505.43,9.43E+04
506.427,9.43E+04
507.424,9.43E+04
508.421,9.42E+04
509.418,9.42E+04
510.415,9.42E+04
511.412,9.41E+04
512.409,9.41E+04
513.406,9.41E+04
514.403,9.41E+04
515.399,9.40E+04
516.396,9.40E+04
517.393,9.40E+04
518.39,9.39E+04
519.387,9.39E+04
520.384,9.39E+04
521.381,9.38E+04
522.378,9.38E+04
523.375,9.38E+04
524.372,9.38E+04
525.369,9.37E+04
526.365,9.37E+04
527.362,9.37E+04
528.359,9.36E+04
529.356,9.36E+04
530.353,9.36E+04
531.35,9.36E+04
532.347,9.35E+04
533.344,9.35E+04
534.341,9.35E+04
535.338,9.34E+04
536.334,9.34E+04
537.331,9.34E+04
538.328,9.33E+04
539.325,9.33E+04
540.322,9.33E+04
541.319,9.33E+04
542.316,9.32E+04
543.313,9.32E+04
544.31,9.32E+04
545.307,9.32E+04
546.303,9.31E+04
547.3,9.31E+04
548.297,9.31E+04
549.294,9.30E+04
550.291,9.30E+04
551.288,9.30E+04
552.285,9.30E+04
553.282,9.29E+04
554.279,9.29E+04
555.276,9.29E+04
556.273,9.28E+04
557.269,9.28E+04
558.266,9.28E+04
559.263,9.28E+04
560.26,9.27E+04
561.257,9.27E+04
562.254,9.27E+04
563.251,9.26E+04
564.248,9.26E+04
565.245,9.26E+04
566.242,9.26E+04
567.238,9.25E+04
568.235,9.25E+04
569.232,9.25E+04
570.229,9.25E+04
571.226,9.24E+04
572.223,9.24E+04
573.22,9.24E+04
574.217,9.24E+04
575.214,9.23E+04
576.211,9.23E+04
577.208,9.23E+04
578.204,9.23E+04
579.201,9.22E+04
580.198,9.22E+04
581.195,9.22E+04
582.192,9.21E+04
583.189,9.21E+04
584.186,9.21E+04
585.183,9.21E+04
586.18,9.20E+04
587.177,9.20E+04
588.173,9.20E+04
589.17,9.20E+04
590.167,9.19E+04
591.164,9.19E+04
592.161,9.19E+04
593.158,9.19E+04
594.155,9.18E+04
595.152,9.18E+04
596.149,9.18E+04
597.146,9.18E+04
598.143,9.17E+04
599.139,9.17E+04
600.136,9.17E+04
601.133,9.17E+04
602.13,9.16E+04
603.127,9.16E+04
604.124,9.16E+04
605.121,9.15E+04
606.118,9.15E+04
607.115,9.15E+04
608.112,9.15E+04
609.108,9.14E+04
610.105,9.14E+04
611.102,9.14E+04
612.099,9.14E+04
613.096,9.14E+04
614.093,9.14E+04
615.09,9.13E+04
616.087,9.13E+04
617.084,9.13E+04
618.081,9.13E+04
619.078,9.13E+04
620.074,9.13E+04
621.071,9.13E+04
621.071,9.13E+04
622.068,9.13E+04
623.065,9.13E+04
624.062,9.13E+04
625.059,9.13E+04
626.056,9.12E+04
627.053,9.12E+04
628.05,9.12E+04
629.046,9.12E+04
630.043,9.12E+04
631.04,9.12E+04
632.037,9.11E+04
633.034,9.11E+04
634.031,9.11E+04
635.028,9.11E+04
636.025,9.11E+04
637.022,9.10E+04
638.019,9.10E+04
639.016,9.10E+04
640.012,9.10E+04
641.009,9.09E+04
642.006,9.09E+04
643.003,9.09E+04
644,9.08E+04
644.997,9.08E+04
645.994,9.08E+04
646.991,9.08E+04
647.988,9.07E+04
648.985,9.07E+04
649.981,9.07E+04
650.978,9.06E+04
651.975,9.06E+04
652.972,9.06E+04
653.969,9.06E+04
654.966,9.05E+04
655.963,9.05E+04
656.96,9.05E+04
657.957,9.04E+04
658.954,9.04E+04
659.951,9.04E+04
660.947,9.04E+04
661.944,9.03E+04
662.941,9.03E+04
663.938,9.03E+04
664.935,9.03E+04
665.932,9.02E+04
666.929,9.02E+04
667.926,9.02E+04
668.923,9.02E+04
669.92,9.01E+04
670.916,9.01E+04
671.913,9.01E+04
672.91,9.01E+04
673.907,9.00E+04
674.904,9.00E+04
675.901,9.00E+04
676.898,9.00E+04
677.895,8.99E+04
678.892,8.99E+04
679.889,8.99E+04
680.886,8.99E+04
681.882,8.98E+04
682.879,8.98E+04
683.876,8.98E+04
684.873,8.98E+04
685.87,8.98E+04
686.867,8.97E+04
687.864,8.97E+04
688.861,8.97E+04
689.858,8.97E+04
690.855,8.97E+04
691.851,8.96E+04
692.848,8.96E+04
693.845,8.96E+04
694.842,8.96E+04
695.839,8.95E+04
696.836,8.95E+04
697.833,8.95E+04
698.83,8.95E+04
699.827,8.95E+04
700.824,8.94E+04
701.821,8.94E+04
702.817,8.94E+04
703.814,8.94E+04
704.811,8.93E+04
705.808,8.93E+04
706.805,8.93E+04
707.802,8.93E+04
708.799,8.93E+04
709.796,8.92E+04
710.793,8.92E+04
711.79,8.92E+04
712.786,8.92E+04
713.783,8.92E+04
714.78,8.91E+04
715.777,8.91E+04
716.774,8.91E+04
717.771,8.91E+04
718.768,8.91E+04
719.765,8.90E+04
720.762,8.90E+04
721.759,8.90E+04
722.755,8.90E+04
723.752,8.89E+04
724.749,8.89E+04
725.746,8.89E+04
726.743,8.89E+04
727.74,8.89E+04
728.737,8.88E+04
729.734,8.88E+04
730.731,8.88E+04
731.728,8.88E+04
732.725,8.88E+04
733.721,8.87E+04
734.718,8.87E+04
735.715,8.87E+04
736.712,8.87E+04
737.709,8.87E+04
738.706,8.86E+04
739.703,8.86E+04
740.7,8.86E+04
741.697,8.86E+04
742.694,8.86E+04
743.69,8.86E+04
744.687,8.85E+04
745.684,8.85E+04
746.681,8.85E+04
747.678,8.85E+04
748.675,8.85E+04
749.672,8.84E+04
750.669,8.84E+04
751.666,8.84E+04
752.663,8.84E+04
753.66,8.84E+04
754.656,8.83E+04
755.653,8.83E+04
756.65,8.83E+04
757.647,8.83E+04
758.644,8.83E+04
759.641,8.82E+04
760.638,8.82E+04
761.635,8.82E+04
762.632,8.82E+04
763.629,8.82E+04
764.625,8.82E+04
765.622,8.81E+04
766.619,8.81E+04
767.616,8.81E+04
768.613,8.81E+04
769.61,8.81E+04
770.607,8.80E+04
771.604,8.80E+04
772.601,8.80E+04
773.598,8.80E+04
774.595,8.80E+04
775.591,8.79E+04
776.588,8.79E+04
777.585,8.79E+04
778.582,8.79E+04
779.579,8.79E+04
780.576,8.79E+04
781.573,8.78E+04
782.57,8.78E+04
783.567,8.78E+04
784.564,8.78E+04
785.56,8.78E+04
786.557,8.77E+04
787.554,8.77E+04
788.551,8.77E+04
789.548,8.77E+04
790.545,8.77E+04
791.542,8.77E+04
792.539,8.76E+04
793.536,8.76E+04
794.533,8.76E+04
795.53,8.76E+04
796.526,8.76E+04
797.523,8.76E+04
798.52,8.75E+04
799.517,8.75E+04
800.514,8.75E+04
801.511,8.75E+04
802.508,8.75E+04
803.505,8.74E+04
804.502,8.74E+04
805.499,8.74E+04
806.495,8.74E+04
807.492,8.74E+04
808.489,8.74E+04
809.486,8.73E+04
810.483,8.73E+04
811.48,8.73E+04
812.477,8.73E+04
813.474,8.73E+04
814.471,8.73E+04
815.468,8.72E+04
816.464,8.72E+04
817.461,8.72E+04
818.458,8.72E+04
819.455,8.72E+04
820.452,8.72E+04
821.449,8.71E+04
822.446,8.71E+04
823.443,8.71E+04
824.44,8.71E+04
825.437,8.71E+04
826.434,8.71E+04
827.43,8.70E+04
828.427,8.70E+04
829.424,8.70E+04
830.421,8.70E+04
831.418,8.70E+04
832.415,8.69E+04
833.412,8.69E+04
834.409,8.69E+04
835.406,8.69E+04
836.403,8.69E+04
837.399,8.69E+04
838.396,8.69E+04
839.393,8.68E+04
840.39,8.68E+04
841.387,8.68E+04
842.384,8.68E+04
843.381,8.68E+04
844.378,8.68E+04
845.375,8.67E+04
846.372,8.67E+04
847.369,8.67E+04
848.365,8.67E+04
849.362,8.67E+04
850.359,8.67E+04
851.356,8.66E+04
852.353,8.66E+04
853.35,8.66E+04
854.347,8.66E+04
855.344,8.66E+04
856.341,8.66E+04
857.338,8.65E+04
858.334,8.65E+04
859.331,8.65E+04
860.328,8.65E+04
861.325,8.65E+04
862.322,8.65E+04
863.319,8.64E+04
864.316,8.64E+04
865.313,8.64E+04
866.31,8.64E+04
867.307,8.64E+04
868.304,8.64E+04
869.3,8.64E+04
870.297,8.63E+04
871.294,8.63E+04
872.291,8.63E+04
873.288,8.63E+04
874.285,8.63E+04
875.282,8.63E+04
876.279,8.62E+04
877.276,8.62E+04
878.273,8.62E+04
879.269,8.62E+04
880.266,8.62E+04
881.263,8.62E+04
882.26,8.62E+04
883.257,8.61E+04
884.254,8.61E+04
885.251,8.61E+04
886.248,8.61E+04
887.245,8.61E+04
888.242,8.61E+04
889.239,8.60E+04
890.235,8.60E+04
891.232,8.60E+04
892.229,8.60E+04
893.226,8.60E+04
894.223,8.60E+04
895.22,8.60E+04
896.217,8.59E+04
897.214,8.59E+04
898.211,8.59E+04
899.208,8.59E+04
900.204,8.59E+04
901.201,8.59E+04
902.198,8.59E+04
903.195,8.58E+04
904.192,8.58E+04
905.189,8.58E+04
906.186,8.58E+04
907.183,8.58E+04
908.18,8.58E+04
908.18,8.58E+04
909.177,8.57E+04
910.173,8.57E+04
911.17,8.57E+04
912.167,8.57E+04
913.164,8.57E+04
914.161,8.57E+04
915.158,8.57E+04
916.155,8.56E+04
917.152,8.56E+04
918.149,8.56E+04
919.146,8.56E+04
920.143,8.56E+04
921.139,8.56E+04
922.136,8.56E+04
923.133,8.55E+04
924.13,8.55E+04
925.127,8.55E+04
926.124,8.55E+04
927.121,8.55E+04
928.118,8.55E+04
929.115,8.55E+04
930.112,8.54E+04
931.108,8.54E+04
932.105,8.54E+04
933.102,8.54E+04
934.099,8.54E+04
935.096,8.54E+04
936.093,8.54E+04
937.09,8.53E+04
938.087,8.53E+04
939.084,8.53E+04
940.081,8.53E+04
941.078,8.53E+04
942.074,8.53E+04
943.071,8.53E+04
944.068,8.52E+04
945.065,8.52E+04
946.062,8.52E+04
947.059,8.52E+04
948.056,8.52E+04
949.053,8.52E+04
950.05,8.52E+04
951.047,8.52E+04
952.043,8.51E+04
953.04,8.51E+04
954.037,8.51E+04
955.034,8.51E+04
956.031,8.51E+04
957.028,8.51E+04
958.025,8.51E+04
959.022,8.50E+04
960.019,8.50E+04
961.016,8.50E+04
962.013,8.50E+04
963.009,8.50E+04
964.006,8.50E+04
965.003,8.50E+04
966,8.49E+04
966.997,8.49E+04
967.994,8.49E+04
968.991,8.49E+04
969.988,8.49E+04
970.985,8.49E+04
971.982,8.49E+04
972.978,8.49E+04
973.975,8.48E+04
974.972,8.48E+04
975.969,8.48E+04
976.966,8.48E+04
977.963,8.48E+04
978.96,8.48E+04
979.957,8.48E+04
980.954,8.47E+04
981.951,8.47E+04
982.948,8.47E+04
983.944,8.47E+04
984.941,8.47E+04
985.938,8.47E+04
986.935,8.47E+04
987.932,8.47E+04
988.929,8.46E+04
989.926,8.46E+04
990.923,8.46E+04
991.92,8.46E+04
992.917,8.46E+04
993.913,8.46E+04
994.91,8.46E+04
995.907,8.45E+04
996.904,8.45E+04
997.901,8.45E+04
998.898,8.45E+04
999.895,8.45E+04
1000.89,8.45E+04
1001.89,8.45E+04
1002.89,8.45E+04
1003.88,8.44E+04
1004.88,8.44E+04
1005.88,8.44E+04
1006.87,8.44E+04
1007.87,8.44E+04
1008.87,8.44E+04
1009.86,8.44E+04
1010.86,8.44E+04
1011.86,8.43E+04
1012.85,8.43E+04
1013.85,8.43E+04
1014.85,8.43E+04
1015.85,8.43E+04
1016.84,8.43E+04
1017.84,8.43E+04
1018.84,8.43E+04
1019.83,8.42E+04
1020.83,8.42E+04
1021.83,8.42E+04
1022.82,8.42E+04
1023.82,8.42E+04
1024.82,8.42E+04
1025.81,8.42E+04
1026.81,8.42E+04
1027.81,8.41E+04
1028.81,8.41E+04
1029.8,8.41E+04
1030.8,8.41E+04
1031.8,8.41E+04
1032.79,8.41E+04
1033.79,8.41E+04
1034.79,8.41E+04
1035.78,8.40E+04
1036.78,8.40E+04
1037.78,8.40E+04
1038.77,8.40E+04
1039.77,8.40E+04
1040.77,8.40E+04
1041.76,8.40E+04
1042.76,8.40E+04
1043.76,8.40E+04
1044.76,8.39E+04
1045.75,8.39E+04
1046.75,8.39E+04
1047.75,8.39E+04
1048.74,8.39E+04
1049.74,8.39E+04
1050.74,8.39E+04
1051.73,8.38E+04
1052.73,8.38E+04
1053.73,8.38E+04
1054.72,8.38E+04
1055.72,8.38E+04
1056.72,8.38E+04
1057.72,8.38E+04
1058.71,8.38E+04
1059.71,8.38E+04
1060.71,8.38E+04
1061.7,8.38E+04
1062.7,8.38E+04
1063.7,8.37E+04
1064.69,8.37E+04
1065.69,8.37E+04
1066.69,8.37E+04
1067.68,8.37E+04
1068.68,8.37E+04
1069.68,8.37E+04
1070.68,8.37E+04
1071.67,8.36E+04
1072.67,8.36E+04
1073.67,8.36E+04
1074.66,8.35E+04
1075.66,8.35E+04
1076.66,8.35E+04
1077.65,8.34E+04
1078.65,8.34E+04
1079.65,8.33E+04
1080.64,8.32E+04
1081.64,8.32E+04
1082.64,8.31E+04
1083.63,8.30E+04
1084.63,8.29E+04
1085.63,8.28E+04
1086.63,8.28E+04
1087.62,8.27E+04
1088.62,8.26E+04
1089.62,8.26E+04
1090.61,8.25E+04
1091.61,8.24E+04
1092.61,8.24E+04
1093.6,8.23E+04
1094.6,8.23E+04
1095.6,8.22E+04
1096.59,8.22E+04
1097.59,8.22E+04
1098.59,8.22E+04
1099.59,8.21E+04
1100.58,8.21E+04
1101.58,8.21E+04
1102.58,8.21E+04
1103.57,8.21E+04
1104.57,8.22E+04
1105.57,8.22E+04
1106.56,8.22E+04
1107.56,8.22E+04
1108.56,8.22E+04
1109.55,8.23E+04
1110.55,8.23E+04
1111.55,8.23E+04
1112.55,8.23E+04
1113.54,8.24E+04
1114.54,8.24E+04
1115.54,8.24E+04
1116.53,8.24E+04
1117.53,8.24E+04
1118.53,8.24E+04
1119.52,8.25E+04
1120.52,8.25E+04
1121.52,8.25E+04
1122.51,8.25E+04
1123.51,8.25E+04
1124.51,8.25E+04
1125.5,8.25E+04
1126.5,8.25E+04
1127.5,8.25E+04
1128.5,8.25E+04
1129.49,8.25E+04
1130.49,8.24E+04
1131.49,8.24E+04
1132.48,8.24E+04
1133.48,8.24E+04
1134.48,8.24E+04
1135.47,8.24E+04
1136.47,8.24E+04
1137.47,8.24E+04
1138.46,8.24E+04
1139.46,8.24E+04
1140.46,8.24E+04
1141.46,8.23E+04
1142.45,8.23E+04
1143.45,8.23E+04
1144.45,8.23E+04
1145.44,8.23E+04
1146.44,8.23E+04
1147.44,8.23E+04
1148.43,8.23E+04
1149.43,8.22E+04
1150.43,8.22E+04
1151.42,8.22E+04
1152.42,8.22E+04
1153.42,8.22E+04
1154.42,8.22E+04
1155.41,8.22E+04
1156.41,8.22E+04
1157.41,8.22E+04
1158.4,8.21E+04
1159.4,8.21E+04
1160.4,8.21E+04
1161.39,8.21E+04
1162.39,8.21E+04
1163.39,8.21E+04
1164.38,8.21E+04
1165.38,8.21E+04
1166.38,8.21E+04
1167.37,8.21E+04
1168.37,8.21E+04
1169.37,8.21E+04
1170.37,8.20E+04
1171.36,8.20E+04
1172.36,8.20E+04
1173.36,8.20E+04
1174.35,8.20E+04
