x [m],Pressure [kPa]
1.191825139999999963e-03,3.580136087999999859e+02
1.192210590999999995e-03,3.556894816000000219e+02
1.192980329999999934e-03,3.518311782000000107e+02
1.194132840999999985e-03,3.461250059000000192e+02
1.195665216000000057e-03,3.387847780000000171e+02
1.197574077999999983e-03,3.298186792000000196e+02
1.199854653999999970e-03,3.193503827999999771e+02
1.202502055000000038e-03,3.075272469000000228e+02
1.205509761000000003e-03,2.945056293999999752e+02
1.208871020999999950e-03,2.804530618000000004e+02
1.212577801000000108e-03,2.655957212999999797e+02
1.216621603999999950e-03,2.500633042999999986e+02
1.220992882999999895e-03,2.341608043999999893e+02
1.225681510000000080e-03,2.179425467000000083e+02
1.230676541999999995e-03,2.018324983999999915e+02
1.235966337999999968e-03,1.856296848000000068e+02
1.241538674000000056e-03,1.701672929000000067e+02
1.247380393999999917e-03,1.546570739000000003e+02
1.253477995999999943e-03,1.404534988000000055e+02
1.259817042999999926e-03,1.266806777000000039e+02
1.266383100000000083e-03,1.135667018999999982e+02
1.273160568000000076e-03,1.011950590000000005e+02
1.280133845000000015e-03,8.982542913999999712e+01
1.287286518999999994e-03,7.941362474999999677e+01
1.294602057999999934e-03,6.993652899999999306e+01
1.302063231999999945e-03,6.133220426999999830e+01
1.309652812999999912e-03,5.362239952000000187e+01
1.317353104000000075e-03,4.663209915000000194e+01
1.325146062000000105e-03,4.069545946000000214e+01
1.333013525999999930e-03,3.539825162999999719e+01
1.340926624999999985e-03,3.231376123999999805e+01
1.349445199999999966e-03,3.101717559000000080e+01
1.359237473999999959e-03,2.987289868999999953e+01
1.370493206000000016e-03,2.886898216000000161e+01
1.383430092000000012e-03,2.796682618999999903e+01
1.398298190999999963e-03,2.711243941000000035e+01
1.415384350999999898e-03,2.627052893999999839e+01
1.435017445999999973e-03,2.542011306999999931e+01
1.457574544000000104e-03,2.455688616000000124e+01
1.483487664000000079e-03,2.367416983000000030e+01
1.513251686000000040e-03,2.275763827999999833e+01
1.547432620999999965e-03,2.181338328000000004e+01
1.586678321000000022e-03,2.086221958999999870e+01
1.631728838999999941e-03,1.992393033000000102e+01
1.683428883999999988e-03,1.901102251000000010e+01
1.742742023999999936e-03,1.813375372000000141e+01
1.810765592000000007e-03,1.730415693000000132e+01
1.888747560000000013e-03,1.653576988000000014e+01
1.978104933999999798e-03,1.583914062000000023e+01
2.080443082000000068e-03,1.522362397999999928e+01
2.197577618000000170e-03,1.469489775000000087e+01
2.331555122999999854e-03,1.425788808999999979e+01
2.484677127000000166e-03,1.391352688999999998e+01
2.659521764000000177e-03,1.365408646999999931e+01
2.858966123000000054e-03,1.348759706000000058e+01
3.086204640999999985e-03,1.339304416000000053e+01
3.344765631000000058e-03,1.340204869000000087e+01
3.638520138000000004e-03,1.345609980000000050e+01
3.971683793000000025e-03,1.356146127000000057e+01
4.348805174000000030e-03,1.371468203999999957e+01
4.774741828000000042e-03,1.389730806999999935e+01
5.254611838999999861e-03,1.409655805000000051e+01
5.793726536999999933e-03,1.429180601000000017e+01
6.397490389999999777e-03,1.448449654000000031e+01
7.071269209999999847e-03,1.466031940999999961e+01
7.820223458000000183e-03,1.481979132999999926e+01
8.649101480999999564e-03,1.496448316000000034e+01
9.561997838000000152e-03,1.509027503000000081e+01
1.056208089000000051e-02,1.519652866999999929e+01
1.165129802999999992e-02,1.527828006999999921e+01
1.283007952999999993e-02,1.534608157999999989e+01
1.409705076000000029e-02,1.538526361999999992e+01
1.544879191000000061e-02,1.542563415999999954e+01
1.687966659999999910e-02,1.544497368999999942e+01
1.838174462000000120e-02,1.546639818999999960e+01
1.994485408000000112e-02,1.547735868000000004e+01
2.155675367000000134e-02,1.549089662999999994e+01
2.320346422000000089e-02,1.549137413999999957e+01
2.486971951999999986e-02,1.549297666999999912e+01
2.653950453000000070e-02,1.549236222999999946e+01
2.819666825000000099e-02,1.549078757999999922e+01
2.982554956999999840e-02,1.548712689999999981e+01
3.141154348999999901e-02,1.548301209999999983e+01
3.294160217000000057e-02,1.547868689999999958e+01
3.440462797999999794e-02,1.547381698000000050e+01
3.579169138999999805e-02,1.546919317999999954e+01
3.709616140000000090e-02,1.546475483999999945e+01
3.831367195000000281e-02,1.546076101999999963e+01
3.944197669999999906e-02,1.545735280000000067e+01
4.048075898999999728e-02,1.545435980999999970e+01
4.143133387000000334e-02,1.545204690999999997e+01
4.229638353000000212e-02,1.544977787000000014e+01
4.307962582000000179e-02,1.544865807999999952e+01
4.378556087999999763e-02,1.544670656000000086e+01
4.445404187000000229e-02,1.544653403000000047e+01
4.512252286000000001e-02,1.544607839000000027e+01
4.579100384999999773e-02,1.544566441999999995e+01
4.645948485000000322e-02,1.544531139000000053e+01
4.712796956000000342e-02,1.544497525999999965e+01
4.779645056000000197e-02,1.544459138999999936e+01
4.846493154999999969e-02,1.544410000999999966e+01
4.913341253999999741e-02,1.544348703000000000e+01
4.980189725999999845e-02,1.544278470999999975e+01
5.047037825000000311e-02,1.544205333000000024e+01
5.113885924000000083e-02,1.544136776999999938e+01
5.180734022999999855e-02,1.544081414000000052e+01
5.247582122999999710e-02,1.544045679000000071e+01
5.314430593999999730e-02,1.544030051999999920e+01
5.381278694000000279e-02,1.544027505999999939e+01
5.448126793000000051e-02,1.544027048999999963e+01
5.514974891999999823e-02,1.544018823999999945e+01
5.581823363999999926e-02,1.543997743000000078e+01
5.648671462999999698e-02,1.543962312000000026e+01
5.715519562000000164e-02,1.543914056000000024e+01
5.782367662000000019e-02,1.543855892999999924e+01
5.849215760999999791e-02,1.543792056000000024e+01
5.916064232999999895e-02,1.543728231999999956e+01
5.982912331999999667e-02,1.543669964999999955e+01
6.049760431000000133e-02,1.543619649999999943e+01
6.116608529999999905e-02,1.543578727999999956e+01
6.183456629999999760e-02,1.543547840999999998e+01
6.250304729000000226e-02,1.543525625000000012e+01
6.317152827999999998e-02,1.543508409999999920e+01
6.384001672000000349e-02,1.543491352000000028e+01
6.450849771000000121e-02,1.543469404000000011e+01
6.517697870999999976e-02,1.543439723999999913e+01
6.584545969999999748e-02,1.543403044000000079e+01
6.651394068999999520e-02,1.543362890000000043e+01
6.718242168000000680e-02,1.543322380000000038e+01
6.785090268000000535e-02,1.543283912999999963e+01
6.851938367000000307e-02,1.543247810999999992e+01
6.918786466000000079e-02,1.543213534000000031e+01
6.985635310000000431e-02,1.543180845000000012e+01
7.052483410000000286e-02,1.543150342000000030e+01
7.119331509000000058e-02,1.543122149000000043e+01
7.186179607999999830e-02,1.543095744999999930e+01
7.253027706999999602e-02,1.543070007999999937e+01
7.319875806999999457e-02,1.543043497000000031e+01
7.386723906000000617e-02,1.543015532000000078e+01
7.453572005000000389e-02,1.542987192999999913e+01
7.520420104000000161e-02,1.542959880000000084e+01
7.587268949000000595e-02,1.542934245000000004e+01
7.654117048000000367e-02,1.542909397999999932e+01
7.720965147000000139e-02,1.542883465000000065e+01
7.787813245999999912e-02,1.542853636000000073e+01
7.854661344999999684e-02,1.542819012000000001e+01
7.921509444999999539e-02,1.542782678000000018e+01
7.988357543999999311e-02,1.542750206999999918e+01
8.055205643000000471e-02,1.542726996999999933e+01
8.122053742000000243e-02,1.542717775999999930e+01
8.188902587000000677e-02,1.542723162000000059e+01
8.255750686000000449e-02,1.542738542999999929e+01
8.322598785000000221e-02,1.542755709999999958e+01
8.389446883999999993e-02,1.542765314000000032e+01
8.456294983999999848e-02,1.542760310000000068e+01
8.523143082999999620e-02,1.542737070999999993e+01
8.589991181999999392e-02,1.542696630999999918e+01
8.656839281000000552e-02,1.542643896999999953e+01
8.723687381000000407e-02,1.542586003999999988e+01
8.790536224999999371e-02,1.542529878999999937e+01
8.857384324000000531e-02,1.542480474999999984e+01
8.924232423000000303e-02,1.542440848999999936e+01
8.991080523000000158e-02,1.542411646000000047e+01
9.057928621999999930e-02,1.542390774999999969e+01
9.124776720999999702e-02,1.542375340000000072e+01
9.191624819999999474e-02,1.542361685999999921e+01
9.258472919000000634e-02,1.542347245999999927e+01
9.325321019000000489e-02,1.542330362999999949e+01
9.392169862999999452e-02,1.542310394999999978e+01
9.459017962000000612e-02,1.542288098000000041e+01
9.525866061000000384e-02,1.542264748000000019e+01
9.592714161000000239e-02,1.542241452999999929e+01
9.659562260000000011e-02,1.542218077999999970e+01
9.726410358999999783e-02,1.542194620999999977e+01
9.793258457999999556e-02,1.542170821999999930e+01
9.860106557999999410e-02,1.542146420000000084e+01
9.926954657000000570e-02,1.542120644999999968e+01
9.993803500999999534e-02,1.542093262000000031e+01
1.006065160000000069e-01,1.542064043999999967e+01
1.012749970000000055e-01,1.542032387999999976e+01
1.019434780000000040e-01,1.541997957000000063e+01
1.026119590000000026e-01,1.541960680999999944e+01
1.032804400000000011e-01,1.541921997000000033e+01
1.039489209999999997e-01,1.541884935000000034e+01
1.046174019999999982e-01,1.541852699000000015e+01
1.052858829000000024e-01,1.541827789999999965e+01
1.059543713999999970e-01,1.541810193999999967e+01
1.066228523999999955e-01,1.541798185000000032e+01
1.072913333999999941e-01,1.541788264999999924e+01
1.079598144000000065e-01,1.541776540000000040e+01
1.086282954000000051e-01,1.541759811000000013e+01
1.092967764000000036e-01,1.541736861999999952e+01
1.099652572999999939e-01,1.541709576999999953e+01
1.106337383000000063e-01,1.541681447000000027e+01
1.113022193000000049e-01,1.541655991000000014e+01
1.119707077999999995e-01,1.541635604000000015e+01
1.126391887999999980e-01,1.541620885000000030e+01
1.133076697999999966e-01,1.541611044999999969e+01
1.139761507999999951e-01,1.541604174999999977e+01
1.146446316999999993e-01,1.541597941999999932e+01
1.153131126999999978e-01,1.541589873000000033e+01
1.159815936999999963e-01,1.541578196999999939e+01
1.166500746999999949e-01,1.541562528999999948e+01
1.173185556999999934e-01,1.541543159000000074e+01
1.179870442000000019e-01,1.541521252999999980e+01
1.186555251000000061e-01,1.541497838999999992e+01
1.193240061000000046e-01,1.541473597999999967e+01
1.199924871000000032e-01,1.541449084999999997e+01
1.206609681000000017e-01,1.541425274999999928e+01
1.213294491000000003e-01,1.541402584999999981e+01
1.219979300999999988e-01,1.541381424000000067e+01
1.226664110999999974e-01,1.541361339999999913e+01
1.233348920999999959e-01,1.541341790000000067e+01
1.240033804999999961e-01,1.541322347999999920e+01
1.246718614999999947e-01,1.541302798999999979e+01
1.253403425000000071e-01,1.541283149999999935e+01
1.260088235000000056e-01,1.541263396999999991e+01
1.266773045000000042e-01,1.541243238000000026e+01
1.273457855000000027e-01,1.541222677000000019e+01
1.280142665000000013e-01,1.541201925000000017e+01
1.286827474999999998e-01,1.541181388999999946e+01
1.293512284999999984e-01,1.541161667999999985e+01
1.300197094999999969e-01,1.541142849000000048e+01
1.306881904999999955e-01,1.541124422000000038e+01
1.313566714999999940e-01,1.541106085000000014e+01
1.320251524000000121e-01,1.541087538999999929e+01
1.326936482999999944e-01,1.541068792999999992e+01
1.333621292999999930e-01,1.541050028999999988e+01
1.340306102999999915e-01,1.541031075999999977e+01
1.346990912999999901e-01,1.541012103999999994e+01
1.353675722999999886e-01,1.540992469000000042e+01
1.360360532999999872e-01,1.540972726999999942e+01
1.367045343000000135e-01,1.540953095999999967e+01
1.373730153000000120e-01,1.540934305000000037e+01
1.380414963000000106e-01,1.540916086999999912e+01
1.387099773000000091e-01,1.540898688000000050e+01
1.393784583000000077e-01,1.540881641000000002e+01
1.400469393000000062e-01,1.540864213999999954e+01
1.407154201999999965e-01,1.540846488999999941e+01
1.413839011999999951e-01,1.540828458999999917e+01
1.420523821999999936e-01,1.540809879000000038e+01
1.427208631999999922e-01,1.540790823000000032e+01
1.433893441999999907e-01,1.540770859000000037e+01
1.440578251999999893e-01,1.540749645000000001e+01
1.447263210999999994e-01,1.540727537000000069e+01
1.453948020999999979e-01,1.540704567999999952e+01
1.460632830999999965e-01,1.540681623000000044e+01
1.467317640999999950e-01,1.540658896000000055e+01
1.474002450999999936e-01,1.540636894999999917e+01
1.480687260999999921e-01,1.540615453999999929e+01
1.487372070999999907e-01,1.540595071000000083e+01
1.494056880000000087e-01,1.540575575999999991e+01
1.500741690000000073e-01,1.540557459999999956e+01
1.507426500000000058e-01,1.540540720999999991e+01
1.514111310000000044e-01,1.540526009000000052e+01
1.520796120000000029e-01,1.540512803999999925e+01
1.527480930000000015e-01,1.540500897999999985e+01
1.534165740000000000e-01,1.540489786000000016e+01
1.540850549999999985e-01,1.540479432000000060e+01
1.547535359999999971e-01,1.540469517000000010e+01
1.554220169999999956e-01,1.540460344000000070e+01
1.560904979999999942e-01,1.540451926999999976e+01
1.567589789999999927e-01,1.540444236999999994e+01
1.574274749000000029e-01,1.540436786000000069e+01
1.580959557999999932e-01,1.540429388000000088e+01
1.587644367999999917e-01,1.540421734000000065e+01
1.594329177999999902e-01,1.540413646999999919e+01
1.601013987999999888e-01,1.540405310999999955e+01
1.607698797999999873e-01,1.540396871999999995e+01
1.614383608000000137e-01,1.540388193000000072e+01
1.621068418000000122e-01,1.540379412000000059e+01
1.627753228000000107e-01,1.540369757000000028e+01
1.634438038000000093e-01,1.540359053999999972e+01
1.641122848000000078e-01,1.540346392000000009e+01
1.647807658000000064e-01,1.540332238999999959e+01
1.654492468000000049e-01,1.540316170000000007e+01
1.661177278000000035e-01,1.540299124000000042e+01
1.667862086999999938e-01,1.540281442999999939e+01
1.674546896999999923e-01,1.540263584000000030e+01
1.681231706999999909e-01,1.540245720999999968e+01
1.687916516999999894e-01,1.540227989999999991e+01
1.694601475999999995e-01,1.540210562000000039e+01
1.701286285999999981e-01,1.540194024000000006e+01
1.707971095999999966e-01,1.540177326999999963e+01
1.714655905999999952e-01,1.540160896000000079e+01
1.721340715999999937e-01,1.540144908000000079e+01
1.728025525999999923e-01,1.540129332000000062e+01
1.734710335999999908e-01,1.540113889000000036e+01
1.741395145999999894e-01,1.540098698999999982e+01
1.748079955999999879e-01,1.540082598000000047e+01
1.754764765999999865e-01,1.540066606999999976e+01
1.761449575000000045e-01,1.540050897999999968e+01
1.768134385000000031e-01,1.540035589000000016e+01
1.774819195000000016e-01,1.540020703000000069e+01
1.781504005000000002e-01,1.540006791999999969e+01
1.788188814999999987e-01,1.539993429999999996e+01
1.794873624999999973e-01,1.539980596000000013e+01
1.801558434999999958e-01,1.539968005999999967e+01
1.808243394000000059e-01,1.539955645999999945e+01
1.814928204000000045e-01,1.539943245000000083e+01
1.821613014000000030e-01,1.539931209999999950e+01
1.828297824000000016e-01,1.539919274000000016e+01
1.834982634000000001e-01,1.539907980000000087e+01
1.841667443999999987e-01,1.539897200000000055e+01
1.848352252999999890e-01,1.539887054999999982e+01
1.855037062999999875e-01,1.539877270000000031e+01
1.861721873000000138e-01,1.539867689000000084e+01
1.868406683000000124e-01,1.539858043000000087e+01
1.875091493000000109e-01,1.539848042000000028e+01
1.881776303000000095e-01,1.539837844999999916e+01
1.888461113000000080e-01,1.539827434999999944e+01
1.895145923000000066e-01,1.539816970999999945e+01
1.901830733000000051e-01,1.539806435999999934e+01
1.908515543000000036e-01,1.539795572999999962e+01
1.915200353000000022e-01,1.539784640999999965e+01
1.921885163000000007e-01,1.539772980999999952e+01
1.928570122000000109e-01,1.539760990999999990e+01
1.935254931000000012e-01,1.539748417999999930e+01
1.941939740999999997e-01,1.539735388999999977e+01
1.948624550999999983e-01,1.539722055999999917e+01
1.955309360999999968e-01,1.539708674000000066e+01
1.961994170999999954e-01,1.539695256999999984e+01
1.968678980999999939e-01,1.539681925000000007e+01
1.975363790999999924e-01,1.539668943999999939e+01
1.982048600999999910e-01,1.539655798999999980e+01
1.988733410999999895e-01,1.539642742000000020e+01
1.995418220999999881e-01,1.539629762999999940e+01
2.002103030999999866e-01,1.539616481999999920e+01
2.008787841000000129e-01,1.539602909000000075e+01
2.015472651000000115e-01,1.539589546999999925e+01
2.022157460000000018e-01,1.539576407999999930e+01
2.028842270000000003e-01,1.539563861000000067e+01
2.035527079999999989e-01,1.539551533999999933e+01
2.042211889999999974e-01,1.539539788999999992e+01
2.048896699999999960e-01,1.539528130000000061e+01
2.055581659000000061e-01,1.539516788999999974e+01
2.062266469000000046e-01,1.539505403000000072e+01
2.068951279000000032e-01,1.539493833999999950e+01
2.075636089000000017e-01,1.539482096000000055e+01
2.082320899000000003e-01,1.539470299000000075e+01
2.089005708999999988e-01,1.539458089000000030e+01
2.095690518999999974e-01,1.539445946000000021e+01
2.102375328999999959e-01,1.539433522000000032e+01
2.109060137999999862e-01,1.539421411000000006e+01
2.115744948000000125e-01,1.539409385000000086e+01
2.122429758000000111e-01,1.539397673999999938e+01
2.129114568000000096e-01,1.539386166000000067e+01
2.135799378000000082e-01,1.539375208000000050e+01
2.142484188000000067e-01,1.539364450000000062e+01
2.149168998000000053e-01,1.539354355999999946e+01
2.155853808000000038e-01,1.539344812999999945e+01
2.162538618000000024e-01,1.539336164000000018e+01
2.169223428000000009e-01,1.539327935999999930e+01
2.175908387000000110e-01,1.539320350000000026e+01
2.182593197000000096e-01,1.539313530000000085e+01
2.189278007000000081e-01,1.539306627000000027e+01
2.195962815999999984e-01,1.539298946000000079e+01
2.202647625999999970e-01,1.539291066000000008e+01
2.209332435999999955e-01,1.539282299000000087e+01
2.216017245999999941e-01,1.539272640000000081e+01
2.222702055999999926e-01,1.539262109000000045e+01
2.229386865999999912e-01,1.539250584000000011e+01
2.236071675999999897e-01,1.539238203999999932e+01
2.242756485999999883e-01,1.539225427000000046e+01
2.249441295999999868e-01,1.539212387000000071e+01
2.256126106000000131e-01,1.539199531000000043e+01
2.262810916000000117e-01,1.539187103999999984e+01
2.269495726000000102e-01,1.539175316000000038e+01
2.276180536000000088e-01,1.539163719000000086e+01
2.282865344999999990e-01,1.539151954000000089e+01
2.289550304000000092e-01,1.539139126999999974e+01
2.296235114000000077e-01,1.539124445000000030e+01
2.302919924000000063e-01,1.539107257000000040e+01
2.309604734000000048e-01,1.539087568999999966e+01
2.316289544000000034e-01,1.539065420000000017e+01
2.322974354000000019e-01,1.539041935999999922e+01
2.329659164000000005e-01,1.539018034999999962e+01
2.336343973999999990e-01,1.538995487999999945e+01
2.343028783999999975e-01,1.538975186999999956e+01
2.349713593999999961e-01,1.538959533000000057e+01
2.356398403999999946e-01,1.538946624000000085e+01
2.363083213999999932e-01,1.538942478000000058e+01
2.369768023000000112e-01,1.538942203000000042e+01
2.376452833000000098e-01,1.538947398000000000e+01
2.383137643000000083e-01,1.538957590000000053e+01
2.389822453000000069e-01,1.538970328999999992e+01
2.396507263000000054e-01,1.538987348999999938e+01
2.403192073000000040e-01,1.538997338000000070e+01
2.409876883000000025e-01,1.539023470999999965e+01
2.416561842000000127e-01,1.539009300999999930e+01
2.423246652000000112e-01,1.539030531999999951e+01
2.429931462000000097e-01,1.539026482000000051e+01
2.436616272000000083e-01,1.539017231999999957e+01
2.443301082000000068e-01,1.539003978000000039e+01
2.449985892000000054e-01,1.538986769000000088e+01
2.456670702000000039e-01,1.538967107000000034e+01
2.463355510999999942e-01,1.538946291000000066e+01
2.470040320999999928e-01,1.538925264000000048e+01
2.476725130999999913e-01,1.538905512000000009e+01
