x [m],Heat flux [MW/m^2]
1.191825139999999963e-03,2.814389917000000096e+01
1.192210590999999995e-03,2.776505140000000083e+01
1.192980329999999934e-03,2.741544418999999877e+01
1.194132840999999985e-03,2.702921927999999951e+01
1.195665216000000057e-03,2.657852816000000118e+01
1.197574077999999983e-03,2.604563011000000117e+01
1.199854653999999970e-03,2.542244330000000119e+01
1.202502055000000038e-03,2.471128965999999849e+01
1.205509761000000003e-03,2.391788585999999839e+01
1.208871020999999950e-03,2.304788767999999877e+01
1.212577801000000108e-03,2.211489402000000126e+01
1.216621603999999950e-03,2.112172477000000015e+01
1.220992882999999895e-03,2.008817070999999999e+01
1.225681510000000080e-03,1.901103768000000116e+01
1.230676541999999995e-03,1.792506391999999948e+01
1.235966337999999968e-03,1.679972199999999916e+01
1.241538674000000056e-03,1.571242845000000088e+01
1.247380393999999917e-03,1.458366859000000026e+01
1.253477995999999943e-03,1.351286531999999951e+01
1.259817042999999926e-03,1.246707596000000073e+01
1.266383100000000083e-03,1.143597860000000033e+01
1.273160568000000076e-03,1.044767906000000046e+01
1.280133845000000015e-03,9.510635899000000393e+00
1.287286518999999994e-03,8.624012618000000074e+00
1.294602057999999934e-03,7.795078368000000424e+00
1.302063231999999945e-03,7.015826385000000442e+00
1.309652812999999912e-03,6.304994920999999586e+00
1.317353104000000075e-03,5.647829078000000003e+00
1.325146062000000105e-03,5.054183920999999913e+00
1.333013525999999930e-03,4.513378130000000432e+00
1.340926624999999985e-03,4.026334956000000354e+00
1.349445199999999966e-03,3.741631808999999809e+00
1.359237473999999959e-03,3.532999744000000053e+00
1.370493206000000016e-03,3.352786728999999966e+00
1.383430092000000012e-03,3.192768912000000014e+00
1.398298190999999963e-03,3.046313091000000028e+00
1.415384350999999898e-03,2.908893536999999974e+00
1.435017445999999973e-03,2.776543046000000015e+00
1.457574544000000104e-03,2.647436995000000071e+00
1.483487664000000079e-03,2.521353865000000027e+00
1.513251686000000040e-03,2.397470418000000159e+00
1.547432620999999965e-03,2.275106270000000208e+00
1.586678321000000022e-03,2.154837478999999778e+00
1.631728838999999941e-03,2.037951553000000082e+00
1.683428883999999988e-03,1.925675111999999967e+00
1.742742023999999936e-03,1.818752769999999908e+00
1.810765592000000007e-03,1.718115285000000103e+00
1.888747560000000013e-03,1.623969859000000016e+00
1.978104933999999798e-03,1.537934807000000070e+00
2.080443082000000068e-03,1.458027882999999969e+00
2.197577618000000170e-03,1.388772735000000091e+00
2.331555122999999854e-03,1.321799332999999965e+00
2.484677127000000166e-03,1.269830508000000080e+00
2.659521764000000177e-03,1.213159985000000107e+00
2.858966123000000054e-03,1.173076642999999919e+00
3.086204640999999985e-03,1.123860091999999922e+00
3.344765631000000058e-03,1.090039133000000104e+00
3.638520138000000004e-03,1.054937059000000010e+00
3.971683793000000025e-03,1.021184662000000021e+00
4.348805174000000030e-03,9.890773932999999962e-01
4.774741828000000042e-03,9.572817583999999602e-01
5.254611838999999861e-03,9.255406053000000410e-01
5.793726536999999933e-03,8.926570275999999859e-01
6.397490389999999777e-03,8.594838786999999813e-01
7.071269209999999847e-03,8.251584604999999684e-01
7.820223458000000183e-03,7.914109508000000126e-01
8.649101480999999564e-03,7.567257916999999834e-01
9.561997838000000152e-03,7.239094966000000353e-01
1.056208089000000051e-02,6.903738030999999609e-01
1.165129802999999992e-02,6.613559270000000101e-01
1.283007952999999993e-02,6.289604185999999597e-01
1.409705076000000029e-02,6.365299061000000425e-01
1.544879191000000061e-02,7.061762093000000240e-01
1.687966659999999910e-02,8.087906073999999723e-01
1.838174462000000120e-02,8.658496640999999716e-01
1.994485408000000112e-02,8.809596090000000324e-01
2.155675367000000134e-02,8.823330347000000184e-01
2.320346422000000089e-02,8.721527673000000203e-01
2.486971951999999986e-02,8.609181594000000493e-01
2.653950453000000070e-02,8.486702010000000129e-01
2.819666825000000099e-02,8.379170451999999880e-01
2.982554956999999840e-02,8.271822454999999685e-01
3.141154348999999901e-02,8.179900996000000202e-01
3.294160217000000057e-02,8.096617134000000382e-01
3.440462797999999794e-02,8.022795995999999485e-01
3.579169138999999805e-02,7.957980873000000122e-01
3.709616140000000090e-02,7.900179480000000254e-01
3.831367195000000281e-02,7.849540024000000171e-01
3.944197669999999906e-02,7.805028282999999512e-01
4.048075898999999728e-02,7.765836092000000246e-01
4.143133387000000334e-02,7.731636053999999536e-01
4.229638353000000212e-02,7.700653418999999777e-01
4.307962582000000179e-02,7.675253823000000031e-01
4.378556087999999763e-02,7.651131743000000318e-01
4.445404187000000229e-02,7.629518015999999792e-01
4.512252286000000001e-02,7.609239123000000049e-01
4.579100384999999773e-02,7.588379053999999568e-01
4.645948485000000322e-02,7.568109050000000337e-01
4.712796956000000342e-02,7.548317659000000068e-01
4.779645056000000197e-02,7.528931211999999595e-01
4.846493154999999969e-02,7.509944886999999625e-01
4.913341253999999741e-02,7.491440725000000356e-01
4.980189725999999845e-02,7.473400968000000200e-01
5.047037825000000311e-02,7.455735951999999944e-01
5.113885924000000083e-02,7.438473796000000249e-01
5.180734022999999855e-02,7.421563022999999593e-01
5.247582122999999710e-02,7.404837480000000527e-01
5.314430593999999730e-02,7.388272298000000404e-01
5.381278694000000279e-02,7.371902190000000354e-01
5.448126793000000051e-02,7.355695707999999611e-01
5.514974891999999823e-02,7.339641661000000372e-01
5.581823363999999926e-02,7.323839665000000387e-01
5.648671462999999698e-02,7.308371457000000238e-01
5.715519562000000164e-02,7.293188463999999982e-01
5.782367662000000019e-02,7.278250071999999848e-01
5.849215760999999791e-02,7.263599454000000399e-01
5.916064232999999895e-02,7.249247801999999519e-01
5.982912331999999667e-02,7.235096713999999984e-01
6.049760431000000133e-02,7.221095156000000292e-01
6.116608529999999905e-02,7.207286176999999627e-01
6.183456629999999760e-02,7.193727000999999843e-01
6.250304729000000226e-02,7.180347484000000335e-01
6.317152827999999998e-02,7.167116418000000211e-01
6.384001672000000349e-02,7.154054376999999798e-01
6.450849771000000121e-02,7.141183002000000002e-01
6.517697870999999976e-02,7.128512906999999732e-01
6.584545969999999748e-02,7.115967065999999619e-01
6.651394068999999520e-02,7.103527246999999933e-01
6.718242168000000680e-02,7.091271849000000405e-01
6.785090268000000535e-02,7.079285943999999997e-01
6.851938367000000307e-02,7.067574304999999502e-01
6.918786466000000079e-02,7.056057930000000367e-01
6.985635310000000431e-02,7.044665570000000487e-01
7.052483410000000286e-02,7.033390186000000321e-01
7.119331509000000058e-02,7.022232542999999882e-01
7.186179607999999830e-02,7.011157739000000166e-01
7.253027706999999602e-02,7.000109944000000306e-01
7.319875806999999457e-02,6.989066970999999739e-01
7.386723906000000617e-02,6.978088529999999512e-01
7.453572005000000389e-02,6.967276529000000496e-01
7.520420104000000161e-02,6.956672672000000501e-01
7.587268949000000595e-02,6.946237154000000080e-01
7.654117048000000367e-02,6.935900798999999894e-01
7.720965147000000139e-02,6.925632138999999743e-01
7.787813245999999912e-02,6.915471336999999830e-01
7.854661344999999684e-02,6.905465076000000257e-01
7.921509444999999539e-02,6.895602144000000377e-01
7.988357543999999311e-02,6.885830847999999671e-01
8.055205643000000471e-02,6.876104289000000147e-01
8.122053742000000243e-02,6.866416277000000346e-01
8.188902587000000677e-02,6.856812783000000300e-01
8.255750686000000449e-02,6.847356304999999699e-01
8.322598785000000221e-02,6.838062163000000471e-01
8.389446883999999993e-02,6.828902838000000530e-01
8.456294983999999848e-02,6.819848754999999763e-01
8.523143082999999620e-02,6.810877564999999745e-01
8.589991181999999392e-02,6.801985407999999733e-01
8.656839281000000552e-02,6.793194792000000204e-01
8.723687381000000407e-02,6.784516166999999820e-01
8.790536224999999371e-02,6.775918313000000026e-01
8.857384324000000531e-02,6.767363486999999900e-01
8.924232423000000303e-02,6.758840076000000030e-01
8.991080523000000158e-02,6.750356107999999633e-01
9.057928621999999930e-02,6.741937164000000315e-01
9.124776720999999702e-02,6.733629802999999692e-01
9.191624819999999474e-02,6.725463500999999678e-01
9.258472919000000634e-02,6.717416016999999684e-01
9.325321019000000489e-02,6.709436507999999577e-01
9.392169862999999452e-02,6.701490974999999573e-01
9.459017962000000612e-02,6.693565594999999480e-01
9.525866061000000384e-02,6.685664280999999987e-01
9.592714161000000239e-02,6.677817966000000327e-01
9.659562260000000011e-02,6.670070415000000086e-01
9.726410358999999783e-02,6.662438703999999934e-01
9.793258457999999556e-02,6.654894305999999871e-01
9.860106557999999410e-02,6.647398996000000171e-01
9.926954657000000570e-02,6.639935137000000376e-01
9.993803500999999534e-02,6.632499616000000486e-01
1.006065160000000069e-01,6.625096386000000059e-01
1.012749970000000055e-01,6.617746426999999709e-01
1.019434780000000040e-01,6.610485971999999766e-01
1.026119590000000026e-01,6.603327763999999878e-01
1.032804400000000011e-01,6.596242221000000461e-01
1.039489209999999997e-01,6.589187401999999638e-01
1.046174019999999982e-01,6.582148898999999886e-01
1.052858829000000024e-01,6.575131109999999834e-01
1.059543713999999970e-01,6.568143388999999610e-01
1.066228523999999955e-01,6.561203382000000417e-01
1.072913333999999941e-01,6.554348314000000286e-01
1.079598144000000065e-01,6.547610281000000310e-01
1.086282954000000051e-01,6.540987123000000514e-01
1.092967764000000036e-01,6.534443469999999810e-01
1.099652572999999939e-01,6.527942559999999617e-01
1.106337383000000063e-01,6.521468679999999907e-01
1.113022193000000049e-01,6.515019860999999857e-01
1.119707077999999995e-01,6.508593438999999981e-01
1.126391887999999980e-01,6.502189014999999461e-01
1.133076697999999966e-01,6.495822971000000390e-01
1.139761507999999951e-01,6.489520004000000064e-01
1.146446316999999993e-01,6.483288104000000107e-01
1.153131126999999978e-01,6.477108669000000152e-01
1.159815936999999963e-01,6.470954875000000106e-01
1.166500746999999949e-01,6.464815657000000382e-01
1.173185556999999934e-01,6.458697103999999634e-01
1.179870442000000019e-01,6.452611470000000349e-01
1.186555251000000061e-01,6.446561679000000211e-01
1.193240061000000046e-01,6.440544360000000079e-01
1.199924871000000032e-01,6.434583069000000544e-01
1.206609681000000017e-01,6.428688515999999575e-01
1.213294491000000003e-01,6.422877984000000540e-01
1.219979300999999988e-01,6.417126388999999653e-01
1.226664110999999974e-01,6.411403129999999617e-01
1.233348920999999959e-01,6.405693009999999799e-01
1.240033804999999961e-01,6.399998479999999823e-01
1.246718614999999947e-01,6.394330556999999748e-01
1.253403425000000071e-01,6.388692110000000479e-01
1.260088235000000056e-01,6.383081359000000177e-01
1.266773045000000042e-01,6.377501778999999926e-01
1.273457855000000027e-01,6.371973640000000438e-01
1.280142665000000013e-01,6.366518727000000100e-01
1.286827474999999998e-01,6.361135896999999817e-01
1.293512284999999984e-01,6.355802954999999477e-01
1.300197094999999969e-01,6.350493078000000180e-01
1.306881904999999955e-01,6.345193900000000164e-01
1.313566714999999940e-01,6.339907772999999747e-01
1.320251524000000121e-01,6.334642634999999578e-01
1.326936482999999944e-01,6.329399660000000205e-01
1.333621292999999930e-01,6.324176540000000513e-01
1.340306102999999915e-01,6.318972106000000366e-01
1.346990912999999901e-01,6.313798600000000150e-01
1.353675722999999886e-01,6.308675456000000237e-01
1.360360532999999872e-01,6.303616145999999532e-01
1.367045343000000135e-01,6.298613446999999921e-01
1.373730153000000120e-01,6.293645123000000119e-01
1.380414963000000106e-01,6.288689484999999690e-01
1.387099773000000091e-01,6.283741821999999644e-01
1.393784583000000077e-01,6.278807237000000319e-01
1.400469393000000062e-01,6.273890735999999579e-01
1.407154201999999965e-01,6.268998636999999485e-01
1.413839011999999951e-01,6.264129537000000525e-01
1.420523821999999936e-01,6.259281141000000437e-01
1.427208631999999922e-01,6.254459170999999706e-01
1.433893441999999907e-01,6.249677552000000302e-01
1.440578251999999893e-01,6.244953963999999580e-01
1.447263210999999994e-01,6.240294672999999737e-01
1.453948020999999979e-01,6.235682663999999598e-01
1.460632830999999965e-01,6.231096573000000083e-01
1.467317640999999950e-01,6.226517815000000011e-01
1.474002450999999936e-01,6.221947061000000501e-01
1.480687260999999921e-01,6.217385109999999937e-01
1.487372070999999907e-01,6.212849825999999798e-01
1.494056880000000087e-01,6.208319078999999796e-01
1.500741690000000073e-01,6.203803471000000069e-01
1.507426500000000058e-01,6.199321236000000512e-01
1.514111310000000044e-01,6.194836661000000522e-01
1.520796120000000029e-01,6.190388695999999857e-01
1.527480930000000015e-01,6.185988413999999880e-01
1.534165740000000000e-01,6.181626382999999558e-01
1.540850549999999985e-01,6.177323207999999566e-01
1.547535359999999971e-01,6.173053377999999647e-01
1.554220169999999956e-01,6.168795917999999601e-01
1.560904979999999942e-01,6.164539895999999741e-01
1.567589789999999927e-01,6.160290223000000065e-01
1.574274749000000029e-01,6.156052931000000061e-01
1.580959557999999932e-01,6.151834841000000109e-01
1.587644367999999917e-01,6.147635527999999461e-01
1.594329177999999902e-01,6.143453381000000268e-01
1.601013987999999888e-01,6.139283879000000388e-01
1.607698797999999873e-01,6.135127554000000538e-01
1.614383608000000137e-01,6.130987650000000455e-01
1.621068418000000122e-01,6.126877389999999535e-01
1.627753228000000107e-01,6.122809432000000385e-01
1.634438038000000093e-01,6.118789494999999912e-01
1.641122848000000078e-01,6.114808766999999534e-01
1.647807658000000064e-01,6.110849890999999756e-01
1.654492468000000049e-01,6.106897955000000211e-01
1.661177278000000035e-01,6.102945079999999578e-01
1.667862086999999938e-01,6.099004986999999600e-01
1.674546896999999923e-01,6.095061400000000296e-01
1.681231706999999909e-01,6.091132385999999954e-01
1.687916516999999894e-01,6.087241423999999457e-01
1.694601475999999995e-01,6.083361092000000303e-01
1.701286285999999981e-01,6.079495306000000099e-01
1.707971095999999966e-01,6.075643254999999465e-01
1.714655905999999952e-01,6.071805416000000122e-01
1.721340715999999937e-01,6.067985309000000216e-01
1.728025525999999923e-01,6.064195789999999864e-01
1.734710335999999908e-01,6.060444452000000037e-01
1.741395145999999894e-01,6.056738594999999670e-01
1.748079955999999879e-01,6.053063370000000276e-01
1.754764765999999865e-01,6.049402565999999482e-01
1.761449575000000045e-01,6.045747430000000255e-01
1.768134385000000031e-01,6.042091966999999508e-01
1.774819195000000016e-01,6.038437899999999914e-01
1.781504005000000002e-01,6.034791847999999570e-01
1.788188814999999987e-01,6.031157276999999928e-01
1.794873624999999973e-01,6.027537879000000043e-01
1.801558434999999958e-01,6.023931973999999689e-01
1.808243394000000059e-01,6.020339546999999847e-01
1.814928204000000045e-01,6.016758948000000551e-01
1.821613014000000030e-01,6.013189275000000444e-01
1.828297824000000016e-01,6.009630726000000367e-01
1.834982634000000001e-01,6.006086464000000014e-01
1.841667443999999987e-01,6.002564726000000350e-01
1.848352252999999890e-01,5.999076572999999524e-01
1.855037062999999875e-01,5.995629973999999640e-01
1.861721873000000138e-01,5.992223722999999724e-01
1.868406683000000124e-01,5.988847974000000018e-01
1.875091493000000109e-01,5.985487543999999938e-01
1.881776303000000095e-01,5.982129851999999914e-01
1.888461113000000080e-01,5.978770181000000461e-01
1.895145923000000066e-01,5.975408863000000181e-01
1.901830733000000051e-01,5.972049080000000343e-01
1.908515543000000036e-01,5.968698919999999575e-01
1.915200353000000022e-01,5.965362714999999927e-01
1.921885163000000007e-01,5.962037622000000425e-01
1.928570122000000109e-01,5.958725356999999834e-01
1.935254931000000012e-01,5.955423963000000542e-01
1.941939740999999997e-01,5.952121103999999940e-01
1.948624550999999983e-01,5.948838728999999992e-01
1.955309360999999968e-01,5.945569558000000088e-01
1.961994170999999954e-01,5.942298183999999983e-01
1.968678980999999939e-01,5.939055376999999858e-01
1.975363790999999924e-01,5.935847065999999561e-01
1.982048600999999910e-01,5.932674514000000343e-01
1.988733410999999895e-01,5.929533260999999555e-01
1.995418220999999881e-01,5.926412694999999564e-01
2.002103030999999866e-01,5.923298111000000477e-01
2.008787841000000129e-01,5.920178701999999626e-01
2.015472651000000115e-01,5.917053393000000217e-01
2.022157460000000018e-01,5.913921728000000044e-01
2.028842270000000003e-01,5.910792019999999702e-01
2.035527079999999989e-01,5.907664956000000522e-01
2.042211889999999974e-01,5.904555583999999691e-01
2.048896699999999960e-01,5.901440642999999930e-01
2.055581659000000061e-01,5.898343600000000020e-01
2.062266469000000046e-01,5.895287017000000462e-01
2.068951279000000032e-01,5.892243846000000396e-01
2.075636089000000017e-01,5.889223412999999852e-01
2.082320899000000003e-01,5.886231149999999746e-01
2.089005708999999988e-01,5.883264713000000423e-01
2.095690518999999974e-01,5.880323161999999604e-01
2.102375328999999959e-01,5.877403412999999688e-01
2.109060137999999862e-01,5.874506529999999893e-01
2.115744948000000125e-01,5.871630249000000523e-01
2.122429758000000111e-01,5.868768628999999626e-01
2.129114568000000096e-01,5.865912514000000133e-01
2.135799378000000082e-01,5.863050726999999851e-01
2.142484188000000067e-01,5.860176673000000447e-01
2.149168998000000053e-01,5.857290557000000009e-01
2.155853808000000038e-01,5.854395466999999798e-01
2.162538618000000024e-01,5.851499982000000211e-01
2.169223428000000009e-01,5.848610871999999627e-01
2.175908387000000110e-01,5.845734242000000247e-01
2.182593197000000096e-01,5.842871025000000440e-01
2.189278007000000081e-01,5.840021939999999745e-01
2.195962815999999984e-01,5.837184139000000105e-01
2.202647625999999970e-01,5.834357228000000006e-01
2.209332435999999955e-01,5.831539528000000416e-01
2.216017245999999941e-01,5.828730667999999504e-01
2.222702055999999926e-01,5.825930111999999550e-01
2.229386865999999912e-01,5.823137497999999468e-01
2.236071675999999897e-01,5.820351193999999673e-01
2.242756485999999883e-01,5.817571593999999457e-01
2.249441295999999868e-01,5.814801495000000431e-01
2.256126106000000131e-01,5.812046753999999815e-01
2.262810916000000117e-01,5.809312629999999755e-01
2.269495726000000102e-01,5.806605210999999933e-01
2.276180536000000088e-01,5.803923817999999679e-01
2.282865344999999990e-01,5.801264682000000228e-01
2.289550304000000092e-01,5.798617788000000051e-01
2.296235114000000077e-01,5.795973748999999620e-01
2.302919924000000063e-01,5.793324573999999449e-01
2.309604734000000048e-01,5.790668233000000331e-01
2.316289544000000034e-01,5.788006856999999838e-01
2.322974354000000019e-01,5.785350875000000448e-01
2.329659164000000005e-01,5.782704425000000370e-01
2.336343973999999990e-01,5.780097202999999739e-01
2.343028783999999975e-01,5.777470617000000086e-01
2.349713593999999961e-01,5.774993684000000460e-01
2.356398403999999946e-01,5.772476422000000218e-01
2.363083213999999932e-01,5.770013295000000486e-01
2.369768023000000112e-01,5.767573095000000372e-01
2.376452833000000098e-01,5.765168908000000147e-01
2.383137643000000083e-01,5.762727211000000516e-01
2.389822453000000069e-01,5.760341385999999675e-01
2.396507263000000054e-01,5.757707855000000485e-01
2.403192073000000040e-01,5.755695470999999674e-01
2.409876883000000025e-01,5.752160668000000365e-01
2.416561842000000127e-01,5.750427424999999815e-01
2.423246652000000112e-01,5.747627319000000456e-01
2.429931462000000097e-01,5.745000758999999624e-01
2.436616272000000083e-01,5.742422825999999869e-01
2.443301082000000068e-01,5.739864780000000222e-01
2.449985892000000054e-01,5.737356071000000446e-01
2.456670702000000039e-01,5.734887615999999522e-01
2.463355510999999942e-01,5.732422798999999847e-01
2.470040320999999928e-01,5.729980386999999897e-01
2.476725130999999913e-01,5.727550126999999547e-01
