Region: Body 1.Ramp1: Position[X] (m),Region: Body 1.Ramp1: Wall Y+
2.116952098,0.052569902
2.116703959,0.05256862
2.116455821,0.052567367
2.116207682,0.052566127
2.115959543,0.052564979
2.115711405,0.05256383
2.115463266,0.052562785
2.115215127,0.052561779
2.114966989,0.052560895
2.11471885,0.052560133
2.114470712,0.052559416
2.114222573,0.052558943
2.113974434,0.052558549
2.113726296,0.052558365
2.113478157,0.052558312
2.113230018,0.052558447
2.11298188,0.052558823
2.112733741,0.052559297
2.112485603,0.052560046
2.112237464,0.052560977
2.111989325,0.052562109
2.111743399,0.052563473
2.111495261,0.052565035
2.111244909,0.052566823
2.110996771,0.052568776
2.110748632,0.052571038
2.110500494,0.052573443
2.110252355,0.052576157
2.110004216,0.052579065
2.109758115,0.052582218
2.109509977,0.052585525
2.1092598,0.052589169
2.109011662,0.052592891
2.108763523,0.052596883
2.108515385,0.052601038
2.108267246,0.052605329
2.108019107,0.052609826
2.107771635,0.052614493
2.107523496,0.052619249
2.107274691,0.052624168
2.107026553,0.052629136
2.106778414,0.052634189
2.106530275,0.052639262
2.106282137,0.052644406
2.106033998,0.052649534
2.1057838,0.052654608
2.105535661,0.052659759
2.105289582,0.052664636
2.105041444,0.052669548
2.104793305,0.052674368
2.104545166,0.052679046
2.104297028,0.052683593
2.104048889,0.052688078
2.103797873,0.0526923
2.103549735,0.052696612
2.103304473,0.05270049
2.103056335,0.052704472
2.102808196,0.052708265
2.102560057,0.05271203
2.102311919,0.052715677
2.10206378,0.052719264
2.101815642,0.052722786
2.101567503,0.052726236
2.101319364,0.052729658
2.101071226,0.052733056
2.100823087,0.052736386
2.100574948,0.052739715
2.10032681,0.052742961
2.100078671,0.052746229
2.099830533,0.052749442
2.099582394,0.052752623
2.099334255,0.052755755
2.099086117,0.052758864
2.098837978,0.052761884
2.098589839,0.052764911
2.098341701,0.052767794
2.098096659,0.052770736
2.09784852,0.052773375
2.097597285,0.052776142
2.097349146,0.052778704
2.097101008,0.05278122
2.096852869,0.052783582
2.09660473,0.052785868
2.096356592,0.052788003
2.096110876,0.052790026
2.095862738,0.052791772
2.095612176,0.052793448
2.095364037,0.052794914
2.095115899,0.052796168
2.09486776,0.052797131
2.094619621,0.052797903
2.094371483,0.052798389
2.094123041,0.052798647
2.093874903,0.052798696
2.093627067,0.05279852
2.093378928,0.052798214
2.09313079,0.052797671
2.092882651,0.052796931
2.092634512,0.052795895
2.092386374,0.0527947
2.092135206,0.052793314
2.091887067,0.052791711
2.091641958,0.052790061
2.091393819,0.052788197
2.091145681,0.05278618
2.090897542,0.052784056
2.090649403,0.052781821
2.090401265,0.052779486
2.090151046,0.052777138
2.089902907,0.052774678
2.089656849,0.052772249
2.08940871,0.052769827
2.089160572,0.052767344
2.088912433,0.052764887
2.088664294,0.052762495
2.088416156,0.0527601
2.088168017,0.052757804
2.087919878,0.052755551
2.08767174,0.052753428
2.087423601,0.052751329
2.087175463,0.052749405
2.086927324,0.052747539
2.086679185,0.052745844
2.086433547,0.052744177
2.086185408,0.052742811
2.085934769,0.052741442
2.085686631,0.052740279
2.085438492,0.052739259
2.085190353,0.052738362
2.084942215,0.052737642
2.084694076,0.052737073
2.084448449,0.052736582
2.084200311,0.052736326
2.08394966,0.052736136
2.083701522,0.052736045
2.083453383,0.052736136
2.083205244,0.05273627
2.082957106,0.052736535
2.082708967,0.05273686
2.082462282,0.05273722
2.082214144,0.052737725
2.081964551,0.052738232
2.081716413,0.052738793
2.081468274,0.052739444
2.081220135,0.05274008
2.080971997,0.052740749
2.080723858,0.052741425
2.080474447,0.052742052
2.080226309,0.052742654
2.079979442,0.052743277
2.079731304,0.05274386
2.079483165,0.052744503
2.079235026,0.052745134
2.078986888,0.052745828
2.078738749,0.052746559
2.078488208,0.052747342
2.07824007,0.052748196
2.077994333,0.052749112
2.077746195,0.052750075
2.077498056,0.052751145
2.077249917,0.052752254
2.258142977,0.052802467
2.258391116,0.052801884
2.260376225,0.052801647
2.260624363,0.052802192
2.262609472,0.052810577
2.262361334,0.05280914
2.257894838,0.052803103
2.258639254,0.052801418
2.260128086,0.052801219
2.260872502,0.052802827
2.255909729,0.052812391
2.256157868,0.052810838
2.25218765,0.052846055
2.251942661,0.052848551
2.264594581,0.05282489
2.262857611,0.052812109
2.262113195,0.052807809
2.2576467,0.052803948
2.258887393,0.052801057
2.259879947,0.052800923
2.261120641,0.052803633
2.257398561,0.052804811
2.255661591,0.052814064
2.256406007,0.052809387
2.257150423,0.052805802
2.252435789,0.052843607
2.251694523,0.052850917
2.264346443,0.052822908
2.26310575,0.052813719
2.261865056,0.052806589
2.259135532,0.052800855
2.25962937,0.052800788
2.261367446,0.052804462
2.255413452,0.052815877
2.256654145,0.052808068
2.256902284,0.052806864
2.252683927,0.052841079
2.251443234,0.052853252
2.264098304,0.052820952
2.263355282,0.052815417
2.261615585,0.05280553
2.259381231,0.052800718
2.255165314,0.052817802
2.252932066,0.052838565
2.251195095,0.0528555
2.263850165,0.052819057
2.26360342,0.052817165
2.248713709,0.052871606
2.248465571,0.052872354
2.254917175,0.05281979
2.253180204,0.052836065
2.250946957,0.052857669
2.238788164,0.052791713
2.248961848,0.05287069
2.248217432,0.052872968
2.254669036,0.052821928
2.253428343,0.052833612
2.250698818,0.052859761
2.239036303,0.052795856
2.238540025,0.052787535
2.245733022,0.05287006
2.245487907,0.052868952
2.249209986,0.052869539
2.247966991,0.052873366
2.254420898,0.052824122
2.253678606,0.052831095
2.25045068,0.052861709
2.241021412,0.052826344
2.24126955,0.052829712
2.239284441,0.052799941
2.238294068,0.052783288
2.245981161,0.052871071
2.245239768,0.052867709
2.249458125,0.052868284
2.247718853,0.052873637
2.254172759,0.052826415
2.253926744,0.052828756
2.250202541,0.052863537
2.243254659,0.052852686
2.243502798,0.052855001
2.240773273,0.052822837
2.241517689,0.052832983
2.23953258,0.052803975
2.238045929,0.052779139
2.246232323,0.052871934
2.24499163,0.05286628
2.249706688,0.052866837
2.247473016,0.052873699
2.249954826,0.052865291
2.243006521,0.052850254
2.243750937,0.052857211
2.240525134,0.052819258
2.241765828,0.052836146
2.239780719,0.052807926
2.23779561,0.052774828
2.246480462,0.052872586
2.244743491,0.052864728
2.247224877,0.05287366
2.242758382,0.05284764
2.243999075,0.052859269
2.240279946,0.052815537
2.242013966,0.052839192
2.240031808,0.052811882
2.237547471,0.052770576
2.244495353,0.052863065
2.2467286,0.052873137
2.246976739,0.052873425
2.242510243,0.052844939
2.244247214,0.052861262
2.242262105,0.052842108
2.237299332,0.052766377
2.237051194,0.052762166
2.236803055,0.052757998
2.236554916,0.052753851
2.236306233,0.052749853
2.236058094,0.052745854
2.235810501,0.052741998
2.235562362,0.052738169
2.235314223,0.052734509
2.235066085,0.052730846
2.234817946,0.052727307
2.234569807,0.052723872
2.234319704,0.052720579
2.234071565,0.052717211
2.233825392,0.052714039
2.233577253,0.052710861
2.233329114,0.052707747
2.233080976,0.052704573
2.232832837,0.052701449
2.232584698,0.052698247
2.232334392,0.052695105
2.232086253,0.052691784
2.231840283,0.052688575
2.231592144,0.052685175
2.231344005,0.052681746
2.231095867,0.052678178
2.230847728,0.052674619
2.230599589,0.05267089
2.230351451,0.052667106
2.230103312,0.052663274
2.229855173,0.052659317
2.229607035,0.052655338
2.229358896,0.052651317
2.229110758,0.052647242
2.228862619,0.052643129
2.228616892,0.052638964
2.228368753,0.052635042
2.228118203,0.052630866
2.227870064,0.052626955
2.227621926,0.052623008
2.227373787,0.052619217
2.227125649,0.052615504
2.22687751,0.052611925
2.226631737,0.052608353
2.226383599,0.052605053
2.226133094,0.052601702
2.225884955,0.052598544
2.225636817,0.052595453
2.225388678,0.052592503
2.22514054,0.052589585
2.224892401,0.052586816
2.224645474,0.052584103
2.224397335,0.052581573
2.224147985,0.052579018
2.223899846,0.052576661
2.223651708,0.052574375
2.223403569,0.052572254
2.223155431,0.052570264
2.222907292,0.05256837
2.222657639,0.052566691
2.2224095,0.052565105
2.222162876,0.052563746
2.221914737,0.052562583
2.221666599,0.052561517
2.22141846,0.052560688
2.221170322,0.052560025
2.220922183,0.0525595
2.220671496,0.05255919
2.220423357,0.052558939
2.220177767,0.052558913
2.219929628,0.05255905
2.21968149,0.052559257
2.219433351,0.052559686
2.219185212,0.052560223
2.218937074,0.052560924
2.218688935,0.052561822
2.218440797,0.052562784
2.218192658,0.052563863
2.217944519,0.052565042
2.217696381,0.052566231
2.217448242,0.052567524
2.217200103,0.052568941
2.216951965,0.05257039
2.216703826,0.05257193
2.216455688,0.052573502
2.216207549,0.052575105
2.21595941,0.052576726
2.215711272,0.052578339
2.215463133,0.052579917
2.215214994,0.052581504
2.214968914,0.052583046
2.214720775,0.052584526
2.214470579,0.052586027
2.21422244,0.052587437
2.213974301,0.052588789
2.213726163,0.05259012
2.213478024,0.052591389
2.213229885,0.052592612
2.212984715,0.052593773
2.212736577,0.052594864
2.21248547,0.052595965
2.212237331,0.052597013
2.211989192,0.052597978
2.211741054,0.052598932
2.211492915,0.052599848
2.211244776,0.052600735
2.21099688,0.052601631
2.210748741,0.052602489
2.210500361,0.052603331
2.210252222,0.052604178
2.210004083,0.052605073
2.209755945,0.052605945
2.209507806,0.052606865
2.209259667,0.052607822
2.209009045,0.052608844
2.208760906,0.052609911
2.208515251,0.052611029
2.208267113,0.052612199
2.208018974,0.052613487
2.207770836,0.052614799
2.207522697,0.052616204
2.207274558,0.052617677
2.207023287,0.052619215
2.206775148,0.052620821
2.206530142,0.052622448
2.206282004,0.052624139
2.206033865,0.052625928
2.205785727,0.052627701
2.205537588,0.052629577
2.205289449,0.052631482
2.205041311,0.052633431
2.204793172,0.052635445
2.204545033,0.052637527
2.204296895,0.052639619
2.204048756,0.052641825
2.203800618,0.052644099
2.203552479,0.052646362
2.20330434,0.052648776
2.203056202,0.052651247
2.202808063,0.05265379
2.202559924,0.052656436
2.202311786,0.052659142
2.202063647,0.052661927
2.201815509,0.052664798
2.20156737,0.052667754
2.201322072,0.052670783
2.201073933,0.052673821
2.200822954,0.052677046
2.200574815,0.052680275
2.200326677,0.052683557
2.200078538,0.052686863
2.1998304,0.052690246
2.199582261,0.052693637
2.199336121,0.052697126
2.199087983,0.052700536
2.198837845,0.052704164
2.198589706,0.052707742
2.198341568,0.05271139
2.198093429,0.052715067
2.19784529,0.052718789
2.197597152,0.05272261
2.197348286,0.052726417
2.197100148,0.052730382
2.196852736,0.05273428
2.196604597,0.052738294
2.196356459,0.052742354
2.19610832,0.052746451
2.195860181,0.052750649
2.195612043,0.052754859
2.19536183,0.052759091
2.195113692,0.052763498
2.194867627,0.052767728
2.117197944,0.052571133
2.117446082,0.052572491
2.117696514,0.052573797
2.117944652,0.052575117
2.118192791,0.052576441
2.11844093,0.052577806
2.118689068,0.052579167
2.118937207,0.052580532
2.119184255,0.05258194
2.119432394,0.052583374
2.119681623,0.05258482
2.119929761,0.052586296
2.1201779,0.052587783
2.120426039,0.052589311
2.120674177,0.052590845
2.120922316,0.052592414
2.12117209,0.052594053
2.121420229,0.052595604
2.121666732,0.052597309
2.12191487,0.052598939
2.122163009,0.052600663
2.122411148,0.052602362
2.122659286,0.052604138
2.122907425,0.05260588
2.123158185,0.052607771
2.123406323,0.052609522
2.123651841,0.052611462
2.123899979,0.052613379
2.124148118,0.052615343
2.124396257,0.052617338
2.124644395,0.052619442
2.124892534,0.052621537
2.125143239,0.052623816
2.125391378,0.052625966
2.12563695,0.052628389
2.125885088,0.052630801
2.126133227,0.052633298
2.126381366,0.052635883
2.126629504,0.052638614
2.126877643,0.052641431
2.127125782,0.052644329
2.129607168,0.052678718
2.129855306,0.052682552
2.12737392,0.052647351
2.129359029,0.052674879
2.130103445,0.052686475
2.127622059,0.052650492
2.129108877,0.052671215
2.130351584,0.052690386
2.143999208,0.052843126
2.144247347,0.052842897
2.137795743,0.052806973
2.138043881,0.052810044
2.127870197,0.052653684
2.128860738,0.05266747
2.130599722,0.052694384
2.14375107,0.052843301
2.144493607,0.052842579
2.137547604,0.052803785
2.13829202,0.052812974
2.131344138,0.052706377
2.131093152,0.052702365
2.128118336,0.052657022
2.128614613,0.052663959
2.130845014,0.052698225
2.151691506,0.05280729
2.151443367,0.052809402
2.140773406,0.052835576
2.141021545,0.052837008
2.143502931,0.052843337
2.144741746,0.052842171
2.134321802,0.052755645
2.13456994,0.052759689
2.137299465,0.052800573
2.138540158,0.05281584
2.131592277,0.052710461
2.128366475,0.052660463
2.151939644,0.052805121
2.151195228,0.052811394
2.148217565,0.052829652
2.148467851,0.052828414
2.140525267,0.052833969
2.141269683,0.052838305
2.145736179,0.052839735
2.145984317,0.052838985
2.143254792,0.052843286
2.144991763,0.052841691
2.134073663,0.05275157
2.134820684,0.052763785
2.137053252,0.05279718
2.138788297,0.052818598
2.132584831,0.05272687
2.132832849,0.052730994
2.131840416,0.052714543
2.152187783,0.052802783
2.15094709,0.05281329
2.147969426,0.052830854
2.148715989,0.052827186
2.140277129,0.052832221
2.141517822,0.052839395
2.14548804,0.052840457
2.146232456,0.052838118
2.143006654,0.052843135
2.145239901,0.052841121
2.133825525,0.052747471
2.135068823,0.05276762
2.139036436,0.052821212
2.136805114,0.052793833
2.132336693,0.052722781
2.133080987,0.052735117
2.132088554,0.052718668
2.152435922,0.052800397
2.15070123,0.052815141
2.147721288,0.052831982
2.148961981,0.052825838
2.14002899,0.052830335
2.141765961,0.052840368
2.146481443,0.052837212
2.142755748,0.052842868
2.133577386,0.052743347
2.135314356,0.052771606
2.139284574,0.052823679
2.136555049,0.052790272
2.133329247,0.05273926
2.15268406,0.052797921
2.150453091,0.052816833
2.147473149,0.052833142
2.149210119,0.0528245
2.139780852,0.052828261
2.142014099,0.052841229
2.142507609,0.052842426
2.146729581,0.052836253
2.139532713,0.052826049
2.135562495,0.052775443
2.136306911,0.052786666
2.152932199,0.052795303
2.150202674,0.052818512
2.14722501,0.052834223
2.149458258,0.052823084
2.146976872,0.052835273
2.142262238,0.052841886
2.135810634,0.052779252
2.136058772,0.052782999
2.153180338,0.052792603
2.149954535,0.052820112
2.149706397,0.052821622
2.153428476,0.052789832
2.154168917,0.052780987
2.153923483,0.052784
2.153676615,0.052786942
2.154418326,0.052777814
2.154669169,0.05277468
2.154917308,0.052771409
2.155165447,0.052768145
2.155413585,0.052764831
2.155661724,0.052761524
2.155909862,0.052758195
2.156155818,0.052754974
2.156403956,0.052751616
2.156654278,0.052748382
2.156902417,0.05274517
2.157150556,0.05274206
2.157398694,0.052738978
2.157646833,0.052736044
2.157894971,0.052733187
2.158142201,0.052730439
2.15839034,0.05272785
2.158639387,0.052725361
2.158887526,0.052723046
2.159135665,0.052720909
2.159383803,0.052718916
2.159631942,0.052717144
2.15988008,0.052715557
2.160130037,0.052714063
2.160378175,0.052712774
2.160624496,0.05271167
2.160872635,0.052710715
2.161120774,0.052709923
2.161368912,0.052709252
2.161617051,0.052708741
2.161865189,0.052708352
2.162116059,0.052708169
2.162364198,0.052708043
2.162609605,0.052708271
2.162857744,0.052708596
2.163105883,0.052709142
2.163354021,0.052709879
2.16360216,0.052710837
2.163850298,0.052711995
2.164098437,0.052713375
2.164346576,0.052714939
2.164594714,0.052716751
2.164842853,0.05271873
2.165090992,0.052720985
2.16533913,0.052723411
2.165587269,0.052726093
2.165835408,0.05272895
2.166083546,0.052732099
2.166331685,0.052735409
2.166579823,0.052738999
2.166827962,0.052742797
2.167076101,0.052746793
2.167324239,0.052750975
2.167572378,0.052755423
2.167818569,0.052759881
2.168066708,0.052764766
2.168316794,0.052769604
2.168564932,0.052774751
2.168813071,0.052779928
2.16906121,0.052785229
2.169309348,0.052790646
2.169557487,0.052796134
2.16980296,0.052801491
2.170051099,0.052807267
2.170301903,0.052812837
2.170550041,0.052818606
2.17079818,0.052824331
2.171046319,0.052830092
2.171294457,0.05283586
2.171542596,0.05284161
2.171790795,0.052847309
2.172038934,0.05285299
2.172287012,0.052858599
2.17253515,0.052864102
2.172783289,0.052869533
2.173031428,0.052874873
2.173279566,0.052880094
2.173527705,0.052885143
2.17377863,0.052890287
2.174026769,0.052894951
2.174272121,0.052899754
2.174520259,0.052904281
2.174768398,0.05290874
2.175016537,0.052913015
2.175264675,0.052917128
2.175512814,0.052921105
2.175762944,0.052924931
2.176011083,0.052928439
2.17625723,0.052931799
2.176505369,0.052934948
2.176753507,0.05293785
2.177001646,0.052940554
2.177249784,0.052942974
2.177497923,0.052945193
2.177746062,0.052947176
2.1779942,0.052948868
2.178242339,0.052950411
2.178490478,0.052951707
2.178738616,0.052952766
2.178986755,0.052953617
2.179234893,0.052954237
2.179483032,0.052954601
2.179731171,0.052954862
2.179979309,0.052954926
2.180227448,0.052954791
2.180475587,0.052954518
2.180723725,0.052954107
2.180971864,0.052953478
2.181220002,0.052952741
2.181465483,0.052951863
2.181713622,0.052950756
2.181964418,0.052949559
2.182212557,0.052948156
2.182460696,0.052946617
2.182708834,0.052945008
2.182956973,0.052943214
2.183205111,0.052941317
2.183451554,0.052939324
2.183699693,0.052937126
2.183949527,0.052934904
2.184197666,0.052932505
2.184445805,0.052929987
2.184693943,0.052927403
2.184942082,0.052924698
2.18519022,0.052921929
2.185439389,0.052918956
2.185687528,0.052916027
2.185934636,0.052912949
2.186182775,0.052909743
2.186430914,0.052906535
2.186679052,0.052903198
2.186927191,0.052899798
2.18717533,0.052896357
2.187425725,0.052892756
2.187673863,0.052889295
2.187919745,0.0528856
2.188167884,0.052881938
2.188416023,0.052878164
2.188664161,0.052874365
2.1889123,0.052870526
2.189160439,0.052866652
2.189410922,0.052862613
2.189659061,0.05285873
2.189904854,0.052854685
2.190152993,0.052850634
2.190401132,0.052846505
2.19064927,0.05284238
2.190897409,0.052838157
2.191145548,0.05283395
2.191393686,0.052829694
2.191641825,0.052825377
2.191889963,0.052821026
2.192138102,0.05281665
2.192386241,0.052812259
2.192634379,0.052807823
2.192882518,0.052803355
2.193128422,0.052798995
2.193376561,0.052794423
2.193626934,0.052789982
2.193875072,0.052785483
2.194123211,0.052781008
2.19437135,0.052776583
2.194619488,0.052772147
1.925637216,0.052814257
1.925885355,0.052816896
1.928118602,0.052839638
1.925389077,0.052811596
1.926133493,0.052819551
1.921418859,0.052774632
1.921170721,0.052772782
1.927870464,0.052837321
1.925140939,0.05280898
1.926382359,0.052822195
1.921666998,0.052776499
1.920922582,0.052771028
1.927622325,0.052834936
1.9248928,0.052806362
1.926630497,0.052824787
1.921915136,0.052778485
1.920674443,0.05276931
1.922907691,0.052786892
1.92315583,0.052789175
1.927374186,0.052832469
1.924642662,0.052803811
1.926877909,0.052827402
1.906530542,0.052749508
1.906282403,0.052751653
1.922163275,0.0527805
1.920426305,0.052767652
1.922656712,0.052784727
1.923403968,0.05279149
1.924394523,0.052801197
1.927126048,0.052829965
1.924148384,0.052798757
1.906034264,0.05275399
1.90677868,0.052747514
1.904049155,0.052779787
1.904297294,0.052775828
1.916456087,0.05274756
1.916207948,0.052746646
1.918937473,0.052758868
1.919185612,0.052760245
1.922408573,0.052782502
1.920178166,0.05276607
1.923900245,0.052796308
1.923652107,0.052793866
1.91074593,0.052735252
1.910994069,0.052735414
1.905786126,0.052756509
1.907026819,0.052745726
1.901815908,0.052825374
