Region: Body 1.Ramp1: Position[X] (m),Region: Body 1.Ramp1: Skin Friction Coefficient
1.214347853,168.2516748
1.213851576,168.327714
1.213355298,168.4030382
1.212859021,168.476153
1.212362744,168.5461097
1.211862953,168.6113485
1.211366675,168.6727614
1.210873912,168.7252994
1.210377635,168.7721778
1.209881358,168.8118654
1.20938508,168.8447355
1.208888803,168.8713398
1.208392526,168.892992
1.20789086,168.9086452
1.207394582,168.9225655
1.206903694,168.9313605
1.206407417,168.9374994
1.20591114,168.9406903
1.205414862,168.9410574
1.204918585,168.939006
1.204422308,168.933276
1.203926031,168.9265546
1.203429753,168.9205909
1.202933476,168.9162686
1.202437199,168.9126485
1.201940922,168.9103945
1.201444644,168.9095165
1.200948367,168.9107109
1.20045209,168.9134308
1.199955813,168.9172463
1.199459535,168.9217736
1.198963258,168.9265758
1.198466981,168.931475
1.197970704,168.9363476
1.197474426,168.9411512
1.196978149,168.9458978
1.196485811,168.9503972
1.195989535,168.9551444
1.195489317,168.9594953
1.19499304,168.9636981
1.194496763,168.9675886
1.194000486,168.9712124
1.193504208,168.9745693
1.193007931,168.977794
1.192517105,168.9807598
1.19202083,168.9844881
1.191519099,168.9881771
1.191022822,168.9927064
1.190526545,168.9979484
1.190030268,169.0039004
1.18953399,169.010457
1.189037713,169.0173839
1.188541436,169.0244651
1.188045159,169.0315392
1.187548881,169.0384999
1.187052604,169.0452857
1.186556327,169.0519151
1.18606005,169.0586168
1.185563772,169.0653209
1.185067495,169.0725197
1.184565766,169.0805532
1.184069488,169.0893883
1.183578663,169.1002679
1.183082386,169.1131569
1.182586109,169.1293771
1.182089832,169.1471484
1.181593554,169.1677301
1.181097277,169.1898096
1.180597061,169.214317
1.180100783,169.2407587
1.179608445,169.2682248
1.179112168,169.2965123
1.178615891,169.324535
1.178119614,169.3514025
1.177623336,169.3763854
1.177127059,169.3990241
1.176630782,169.419084
1.176134505,169.4366266
1.175638227,169.4521131
1.17514195,169.4661937
1.174645673,169.4795241
1.174149396,169.4928406
1.173653118,169.5066595
1.173156841,169.5213443
1.172660564,169.5367067
1.172164287,169.5523459
1.171668009,169.5679648
1.171171732,169.58322
1.170675455,169.5976085
1.170179178,169.6106529
1.1696829,169.6217776
1.169192011,169.6308193
1.06695351,172.0500802
1.067454169,172.0086314
1.067950445,171.9690096
1.068442342,171.9316677
1.070427451,171.8063686
1.070923728,171.785562
1.068938619,171.8961966
1.069931174,171.832111
1.071420005,171.7687107
1.069434896,171.8630704
1.071916283,171.7566383
1.07241256,171.7480019
1.075886501,171.8115513
1.076382778,171.8334879
1.072908837,171.7452207
1.076879055,171.8575342
1.075390223,171.7919143
1.087304027,171.7547748
1.087797155,171.7308392
1.077375332,171.8834419
1.073405114,171.7459461
1.074893946,171.7750183
1.078367887,171.9386796
1.07787161,171.910848
1.079856719,172.0080526
1.080352996,172.0226341
1.081841828,172.0295672
1.082338105,172.0172595
1.086807751,171.7799093
1.088293432,171.709456
1.073901392,171.7519408
1.074397669,171.7612728
1.078859505,171.9648734
1.079355783,171.9888752
1.080849273,172.0330457
1.08134555,172.0347459
1.08283208,171.9996831
1.086308323,171.8070534
1.088789709,171.689688
1.083328358,171.9771322
1.089285986,171.6737272
1.085812046,171.8353383
1.083826937,171.9514268
1.089782264,171.6602513
1.085315768,171.8645647
1.084323214,171.9233836
1.090278541,171.6497499
1.084819491,171.8940865
1.090779989,171.6419433
1.091276264,171.6359376
1.091767372,171.6335085
1.09226365,171.6327995
1.092759927,171.6346206
1.093256204,171.6380789
1.093752481,171.6425815
1.094248759,171.6470515
1.094750126,171.6504266
1.095246402,171.653876
1.09573759,171.6549487
1.096233868,171.6537941
1.096730145,171.6474324
1.097226422,171.6360898
1.097722699,171.619588
1.098218977,171.5987376
1.098715254,171.5742981
1.099211531,171.5471303
1.099707808,171.5180941
1.100204086,171.4880871
1.100700363,171.4579633
1.10119664,171.4284268
1.101692917,171.4002689
1.102185122,171.3741826
1.102681401,171.3500738
1.103181749,171.3278884
1.103678026,171.308883
1.104174304,171.2919193
1.104670581,171.278124
1.105166858,171.2666617
1.105663135,171.257769
1.106153596,171.2502223
1.106649875,171.2431272
1.107151967,171.235678
1.107648244,171.2273959
1.108144522,171.2172383
1.108640799,171.204529
1.109137076,171.1899127
1.109633353,171.1737458
1.110129267,171.157017
1.110625544,171.1403841
1.111122185,171.124687
1.111618462,171.1105295
1.11211474,171.0979983
1.112611017,171.0873884
1.113107294,171.0784052
1.113603571,171.0708685
1.114104938,171.0647259
1.114601214,171.0588265
1.115092403,171.0538324
1.11558868,171.0484167
1.116084958,171.042749
1.116581235,171.0367137
1.117077512,171.0303819
1.117573789,171.0238336
1.118076407,171.0174956
1.118572683,171.0109516
1.119062621,171.0057036
1.119558898,171.0007591
1.120055176,170.9967892
1.120551453,170.9937141
1.12104773,170.9915372
1.121544007,170.990195
1.122040285,170.9893683
1.122536562,170.9888327
1.123032839,170.9881985
1.123529116,170.9871394
1.124025394,170.9853955
1.124521671,170.9829986
1.125017948,170.9801843
1.125514225,170.9773439
1.126010503,170.9749815
1.12650678,170.9736346
1.127003057,170.9740934
1.127499334,170.9768889
1.127995612,170.9815268
1.128491889,170.9881277
1.128988166,170.9955171
1.129478834,171.0030778
1.129975113,171.0129943
1.130476998,171.0228523
1.130973275,171.0303835
1.131469552,171.0332972
1.13196583,171.0330882
1.132462107,171.0287867
1.132958384,171.0201351
1.133450784,171.0077518
1.133947062,170.987827
1.134447216,170.9636257
1.134943493,170.9310439
1.13543977,170.8911146
1.135936048,170.8437102
1.136432325,170.7892238
1.136928602,170.72805
1.137426455,170.6599492
1.137922731,170.5880695
1.138417434,170.5112807
1.138913711,170.4315254
1.139409988,170.3495077
1.139906266,170.2665496
1.140402543,170.1836619
1.14089882,170.1022761
1.141399319,170.0221622
1.141895595,169.9474969
1.142387652,169.877104
1.142883929,169.8119206
1.143380206,169.7528068
1.143876484,169.6997059
1.144372761,169.6530562
1.144869038,169.6123549
1.145369829,169.5768306
1.145866105,169.5470126
1.14635787,169.5205963
1.146854147,169.4987443
1.147350424,169.4791809
1.147846702,169.4644136
1.148342979,169.4516452
1.148839256,169.4404124
1.149335533,169.430748
1.149831811,169.4212824
1.150328088,169.4129844
1.150824365,169.4046149
1.151320642,169.3973039
1.15181692,169.3901021
1.152310631,169.3840791
1.152801448,169.378681
1.153300291,169.3755757
1.153802028,169.3726171
1.154298306,169.3727095
1.154794583,169.374101
1.15529086,169.3783491
1.155787137,169.3841062
1.156283415,169.392469
1.156775252,169.401608
1.15727153,169.4140536
1.157772246,169.4266177
1.158268524,169.4412019
1.158764801,169.4567667
1.159261078,169.4734023
1.159757355,169.4905507
1.160253633,169.5079978
1.160747971,169.5249639
1.161244249,169.5422959
1.161742464,169.5587591
1.162238742,169.5752516
1.162735019,169.5910652
1.163231296,169.6056677
1.163727573,169.6188309
1.164223851,169.6300823
1.164723642,169.6393858
1.165219918,169.6461773
1.165712682,169.6506733
1.16620896,169.652693
1.166705237,169.6525166
1.167201514,169.6506499
1.167697791,169.6475399
1.168194069,169.6433211
1.168695736,169.6376951
0.965712952,174.6917617
0.966209229,174.6886836
0.966705506,174.6857349
0.967201784,174.6817837
0.967698061,174.6753104
0.968194338,174.6668335
0.968690615,174.6558703
0.969186893,174.6425821
0.96968317,174.6270669
0.970179447,174.609513
0.972660833,174.4909449
0.973157111,174.4612614
0.970675724,174.5899959
0.97364734,174.43101
0.972164556,174.5187894
0.971172002,174.5683988
0.974143619,174.3981954
0.971668279,174.5446505
0.974645942,174.3651585
0.97514222,174.331656
0.975638497,174.2980597
0.97811528,174.1397086
0.97861616,174.1113445
0.976134774,174.2646734
0.977619001,174.1694111
0.979112438,174.0850399
0.976631051,174.2318603
0.977127329,174.1998979
0.979608715,174.0608201
0.980104992,174.0383005
0.980601269,174.0181363
0.983082655,173.9610928
0.983578933,173.9552638
0.981097547,174.0013738
0.982586378,173.967781
0.98407521,173.9501928
0.981594672,173.9871863
0.984571487,173.9452097
0.982090949,173.9764979
0.987549151,173.9119538
0.988045428,173.9048805
0.985067764,173.9402638
0.987052873,173.9186279
0.988541705,173.8968612
0.985570343,173.9351892
0.986556596,173.9245462
0.989037982,173.8879246
0.986066618,173.9298703
0.989538509,173.8778765
0.990034784,173.8675603
0.990526814,173.8565825
0.991023091,173.8450708
0.991519369,173.8325837
0.992015646,173.8186414
0.992511923,173.8028163
0.9930082,173.7847782
0.993504478,173.7644794
0.994000755,173.7421571
0.994497032,173.7182312
0.994993309,173.6930904
0.995489587,173.6670521
0.995985864,173.6403868
0.996482141,173.6132415
0.996978418,173.5857301
0.997474696,173.5579018
0.997970973,173.5298417
0.99846725,173.5016409
0.998963527,173.4734724
0.999459805,173.4455206
0.999956082,173.4180097
1.000452359,173.3911591
1.000943758,173.3654561
1.001440037,173.3402445
1.001941191,173.3162997
1.002437468,173.2937271
1.002933745,173.2724006
1.003430023,173.2527015
1.0039263,173.2353098
1.004422577,173.2196019
1.004916188,173.2065359
1.005412466,173.1951291
1.005911409,173.1856796
1.006407686,173.1774648
1.006903963,173.1700911
1.007400241,173.1634683
1.007896518,173.1571661
1.008392795,173.1517452
1.008891859,173.1470967
1.009388136,173.1430111
1.009881627,173.1404629
1.010377904,173.1385083
1.010874181,173.1376494
1.011370459,173.1375363
1.011866736,173.1384914
1.012363013,173.1399922
1.012864242,173.1423486
1.013360517,173.1444179
1.013851845,173.1461194
1.014348122,173.1468423
1.014844399,173.1460728
1.015340676,173.14422
1.015836954,173.1409713
1.016333231,173.1357689
1.016834465,173.1280347
1.017330741,173.118293
1.017822063,173.1058053
1.01831834,173.0910444
1.018814617,173.0742425
1.019310894,173.0559354
1.019807172,173.0365305
1.020303449,173.0163962
1.020799726,172.9956199
1.021296003,172.9741321
1.021792281,172.9516667
1.022288558,172.9279291
1.022784835,172.9027508
1.023281112,172.8763151
1.02377739,172.8490858
1.024269462,172.8221679
1.024765741,172.7951824
1.025266221,172.7708147
1.025762499,172.749035
1.026258776,172.7314883
1.026755053,172.7165233
1.02725133,172.7046226
1.027747608,172.6959855
1.028237705,172.6893665
1.028733984,172.6871344
1.029236439,172.6872491
1.029732717,172.6938815
1.030228994,172.7042699
1.030725271,172.7184377
1.031221548,172.7349132
1.031717826,172.7517183
1.032213376,172.7668166
1.032709653,172.7776838
1.033206657,172.7858687
1.033702935,172.7900357
1.034199212,172.7884981
1.034695489,172.7827073
1.035191766,172.772337
1.035688044,172.7582421
1.036189047,172.7398919
1.036685323,172.7188782
1.037176875,172.6937106
1.037673153,172.6656325
1.03816943,172.6348529
1.038665707,172.6020805
1.039161984,172.5680931
1.039658262,172.5338418
1.04016066,172.4997867
1.040656935,172.4679404
1.041147093,172.4378203
1.041643371,172.4096008
1.042139648,172.3835367
1.042635925,172.358807
1.043132202,172.3363387
1.04362848,172.3153389
1.044124757,172.2974574
1.044621034,172.2816346
1.045117311,172.2685165
1.045613589,172.2567872
1.046109866,172.2471382
1.046606143,172.2389521
1.04710242,172.2333822
1.047598697,172.2298659
1.048094975,172.2299244
1.048591252,172.2319576
1.049087529,172.2370049
1.049583806,172.2436489
1.050080084,172.2521679
1.050576361,172.2616186
1.051072638,172.2718887
1.051563087,172.2816091
1.052059366,172.2928474
1.05256147,172.3027725
1.053057747,172.31326
1.053554024,172.3241366
1.054050302,172.3365268
1.054546579,172.3507145
1.055042856,172.3662886
1.055534892,172.382231
1.056031171,172.3989774
1.056531688,172.4147367
1.057027965,172.4291867
1.057524242,172.4411642
1.05802052,172.450353
1.058516797,172.4582621
1.059013074,172.4627955
1.059510563,172.4647309
1.06000684,172.4613751
1.060501906,172.4533915
1.060998183,172.4400756
1.06149446,172.4219487
1.061990738,172.3995565
1.062487015,172.3735962
1.062983292,172.3448162
1.063483572,172.3128643
1.063979848,172.2800496
1.064472124,172.2447739
1.064968401,172.2081362
1.065464678,172.1702013
1.065960956,172.1311515
1.066457233,172.0910081
1.314595857,167.0104614
1.315092135,166.9941426
1.309633085,167.1739062
1.309132427,167.1827714
1.31409958,167.0280415
1.315588412,166.9794652
1.310129362,167.1630319
1.308636149,167.1898597
1.302188926,167.0806481
1.301697427,167.0673544
1.317573521,166.9382898
1.313603303,167.0465487
1.316084689,166.9662476
1.310625639,167.1504105
1.308144253,167.19454
1.302685203,167.0941985
1.301201151,167.0556434
1.317076032,166.9460703
1.313103024,167.0656286
1.316579755,166.9553445
1.312114471,167.1028827
1.311618194,167.1201681
1.311121917,167.1360732
1.307647976,167.1967042
1.303181481,167.108438
1.300700094,167.0433354
1.312606746,167.084766
1.307151699,167.196686
1.30516659,167.1647547
1.305662867,167.1764245
1.303677758,167.1230371
1.300203817,167.0321362
1.306655421,167.1925702
1.304670312,167.1516129
1.306159144,167.1859826
1.296233599,166.9637666
1.295737322,166.957066
1.304174035,167.1375408
1.29970754,167.0212851
1.296729876,166.9702895
1.295241045,166.9501842
1.299211263,167.0109839
1.297230813,166.9775851
1.294744767,166.9428855
1.298714985,167.001236
1.291767104,166.8934707
1.297727089,166.9841633
1.29424849,166.9353393
1.298218708,166.9925727
1.292263381,166.9020147
1.291270827,166.8852389
1.293754515,166.927157
1.292759658,166.910496
1.290774549,166.8774451
1.293258238,166.9192298
1.290278272,166.8706324
1.289778845,166.865314
1.289282567,166.8610907
1.28878944,166.8604109
1.288293163,166.8615286
1.287796886,166.8667182
1.287300609,166.8745713
1.286804331,166.8857436
1.286308054,166.8989928
1.285806608,166.9159239
1.285310329,166.9352183
1.284819222,166.9573784
1.284322945,166.9816705
1.283826668,167.005652
1.283330391,167.0303608
1.282834113,167.056246
1.282337836,167.0830753
1.281841559,167.1105754
1.281345282,167.1387415
1.280849004,167.1674774
1.280352727,167.1964667
1.27985645,167.2252604
1.279360173,167.2532761
1.278863895,167.2799631
1.278367618,167.3048182
1.277871341,167.3273242
1.277375064,167.3473034
1.276878786,167.3651164
1.276382509,167.3814828
1.275886232,167.3970351
1.275389955,167.4124404
1.274893677,167.4282123
1.274401471,167.4451047
1.273905195,167.4630592
1.273404846,167.4833295
1.272908568,167.5046391
1.272412291,167.5269777
1.271916014,167.5499125
1.271419737,167.5729276
1.270923459,167.5956711
1.270432997,167.6178176
1.269936721,167.6387547
1.269434628,167.6599028
1.26893835,167.6800283
1.268442073,167.7000689
1.267945796,167.7202637
1.267449519,167.7408629
1.266953241,167.7618777
1.266457327,167.7835659
1.26596105,167.8055302
1.26546441,167.8284857
1.264968132,167.8521831
1.264471855,167.8778113
1.263975578,167.9057716
1.263479301,167.9374364
1.262983023,167.9733354
1.262481658,168.01363
1.261985379,168.0588106
1.261494192,168.1064812
1.260997914,168.1587103
1.260501637,168.2139605
1.26000536,168.2715232
1.259509083,168.3306372
1.259012805,168.3906145
1.258510189,168.4503877
1.25801391,168.5111165
1.257523974,168.5665789
1.257027696,168.6213811
1.256531419,168.6723128
1.256035142,168.718805
1.255538865,168.7601767
1.255042587,168.796349
1.25454631,168.8271676
1.254050033,168.8526608
1.253553756,168.8729856
1.253057478,168.8883841
1.252561201,168.8986885
1.252064924,168.9034567
1.251568647,168.9010417
1.251072369,168.8926328
1.250576092,168.874306
1.250079815,168.8515693
1.249583538,168.8203613
1.24908726,168.7844419
1.248590983,168.7407041
1.248094706,168.6904695
1.247598429,168.6347415
1.247107759,168.5744561
1.246611483,168.5122722
1.246109597,168.4447566
1.24561332,168.3772917
1.245117042,168.3084176
1.244620765,168.2393321
1.244124488,168.1712173
1.243628211,168.1051293
1.24313581,168.0415353
1.242639534,167.9847501
1.242139379,167.9303011
1.241643102,167.8847747
1.241146824,167.8468754
1.240650547,167.8164385
1.24015427,167.794116
1.239657993,167.7772185
1.23916014,167.7667442
1.238663863,167.7589112
1.238169161,167.7548762
1.237672884,167.7522299
1.237176606,167.7499745
1.236680329,167.7469119
1.236184052,167.7420097
1.235687775,167.7342982
1.235187277,167.7248137
1.234690999,167.7111295
1.234198943,167.6966409
1.233702666,167.6799759
1.233206388,167.6622677
1.232710111,167.6439627
1.232213834,167.6254718
1.231717557,167.6067702
1.231215975,167.588691
1.230717204,167.5696521
1.230226232,167.552241
1.229732448,167.535414
1.22923617,167.5194223
1.228739893,167.5048097
1.228243616,167.4924262
1.227747339,167.4816935
1.227251061,167.4737864
1.226754784,167.4674311
1.226258507,167.4639521
1.22576223,167.4618665
1.225265952,167.4625289
1.224769675,167.4645753
1.224273398,167.4698498
1.223781766,167.4760009
1.22328549,167.4863354
1.222784566,167.4974681
1.222288289,167.5125076
1.221792012,167.5292105
1.221295734,167.5510899
1.220799457,167.5754402
1.22030318,167.6034071
1.219811342,167.6328632
1.219315066,167.6658832
1.218814348,167.7038023
1.218318071,167.7460129
1.217821794,167.7932812
1.217325516,167.8454072
1.216829239,167.9026461
1.216332962,167.9646852
1.215838623,168.0316671
1.215342346,168.1019439
1.21484413,168.1761315
1.414341685,164.1095785
1.413845406,164.1411417
1.41335503,164.1719854
1.412858753,164.2040682
1.412362476,164.2363905
1.411369921,164.3019139
1.411866198,164.2690271
1.410873644,164.3351913
1.410377367,164.3688674
1.409881089,164.4030686
1.405910871,164.6933793
1.405414594,164.7325655
1.409384812,164.4378379
1.400948099,165.1686977
1.401444376,165.1135757
1.406407149,164.6553496
1.404918317,164.7734026
1.408888535,164.4731064
1.400451822,165.2249599
1.401940653,165.0599601
1.406903426,164.6181088
1.40442204,164.8161773
1.408392258,164.5088632
1.396977881,165.5928077
1.397474158,165.5498103
1.399955544,165.2818604
1.402442978,165.0062664
1.407399703,164.5813547
1.403925762,164.8610797
1.40789598,164.5449655
1.402939254,164.9569428
1.396481604,165.629445
1.397970435,165.5017825
1.399459267,165.3385957
1.403429485,164.907883
1.395985326,165.6588818
1.398471317,165.448335
1.398967593,165.3950686
1.395489049,165.6805284
1.393007663,165.6605571
1.392511386,165.6308431
1.394991924,165.6940632
1.39350394,165.6813451
1.392015108,165.5956976
1.394495646,165.698799
1.394000217,165.6955071
1.391518831,165.5581608
1.391016254,165.5132715
1.390519975,165.4641056
1.390029999,165.41416
1.388541168,165.251772
1.38804489,165.1950069
1.389533722,165.3612509
1.389037445,165.307187
1.387548613,165.1371334
1.387048088,165.0798259
1.38655181,165.0219089
1.386059781,164.9696428
1.385563504,164.9194668
1.385067227,164.8742727
1.38457095,164.8350211
1.384074672,164.8032328
1.383578395,164.7775314
1.383082118,164.7597278
1.382585841,164.7471992
1.382089563,164.7443425
1.381593286,164.7468327
1.381097009,164.7611105
1.380600732,164.7812775
1.380104454,164.8120892
1.379613088,164.8469938
1.379116812,164.8920871
1.378615623,164.9396645
1.378119345,164.9975193
1.377623068,165.060034
1.377126791,165.1319069
1.376630514,165.2118423
1.376134236,165.2975727
1.375642836,165.3879444
1.37514656,165.4796905
1.374645405,165.575134
1.374149127,165.6675696
1.37365285,165.7574739
1.373156573,165.8435727
1.372660296,165.9250382
1.372164018,166.0010574
1.371670406,166.0716528
1.37117413,166.1337266
1.370675187,166.1907822
1.370178909,166.2394208
1.369682632,166.2811713
1.369186355,166.3161838
1.368690078,166.3443637
