Region: Body 1.Ramp1: Position[X] (m),Region: Body 1.Ramp1: Wall Y+
1.214347853,0.134830463
1.213851576,0.134879791
1.213355298,0.134930648
1.212859021,0.134982146
1.212362744,0.135033566
1.211862953,0.135084129
1.211366675,0.135133515
1.210873912,0.135179216
1.210377635,0.135222497
1.209881358,0.135262094
1.20938508,0.135297745
1.208888803,0.135329364
1.208392526,0.135357271
1.20789086,0.135381172
1.207394582,0.135402184
1.206903694,0.135419037
1.206407417,0.135433151
1.20591114,0.135444108
1.205414862,0.135452117
1.204918585,0.135457327
1.204422308,0.135459409
1.203926031,0.135459131
1.203429753,0.135457564
1.202933476,0.135455308
1.202437199,0.135452354
1.201940922,0.135449054
1.201444644,0.135445752
1.200948367,0.135442763
1.20045209,0.135440254
1.199955813,0.135438098
1.199459535,0.135436276
1.198963258,0.135434656
1.198466981,0.13543317
1.197970704,0.135431763
1.197474426,0.135430403
1.196978149,0.135429077
1.196485811,0.135427718
1.195989535,0.13542647
1.195489317,0.135425063
1.19499304,0.135423629
1.194496763,0.13542206
1.194000486,0.135420346
1.193504208,0.135418469
1.193007931,0.135416462
1.192517105,0.135414298
1.19202083,0.135412314
1.191519099,0.135410226
1.191022822,0.135408462
1.190526545,0.135407022
1.190030268,0.135405928
1.18953399,0.135405198
1.189037713,0.135404764
1.188541436,0.135404546
1.188045159,0.135404465
1.187548881,0.135404453
1.187052604,0.135404451
1.186556327,0.135404432
1.18606005,0.135404448
1.185563772,0.135404482
1.185067495,0.135404664
1.184565766,0.135405184
1.184069488,0.135406032
1.183578663,0.135407821
1.183082386,0.135410588
1.182586109,0.135414922
1.182089832,0.135420502
1.181593554,0.135427624
1.181097277,0.135436117
1.180597061,0.13544624
1.180100783,0.135457927
1.179608445,0.135470861
1.179112168,0.135484984
1.178615891,0.135499841
1.178119614,0.135514928
1.177623336,0.135529771
1.177127059,0.135543984
1.176630782,0.135557262
1.176134505,0.135569417
1.175638227,0.135580447
1.17514195,0.135590489
1.174645673,0.13559976
1.174149396,0.135608549
1.173653118,0.13561714
1.173156841,0.135625789
1.172660564,0.135634549
1.172164287,0.135643352
1.171668009,0.135652123
1.171171732,0.135660747
1.170675455,0.135669016
1.170179178,0.135676704
1.1696829,0.135683504
1.169192011,0.135689209
1.06695351,0.136537074
1.067454169,0.136516831
1.067950445,0.136498894
1.068442342,0.136483405
1.070427451,0.13644807
1.070923728,0.136447363
1.068938619,0.136470368
1.069931174,0.136452082
1.071420005,0.136449771
1.069434896,0.136459827
1.071916283,0.136455124
1.07241256,0.136463259
1.075886501,0.136581821
1.076382778,0.136602983
1.072908837,0.136474343
1.076879055,0.13662404
1.075390223,0.13656087
1.087304027,0.13656368
1.087797155,0.136555515
1.077375332,0.136644584
1.073405114,0.136487792
1.074893946,0.136540541
1.078367887,0.136682014
1.07787161,0.136664151
1.079856719,0.136717783
1.080352996,0.136722517
1.081841828,0.136712565
1.082338105,0.136701841
1.086807751,0.136573337
1.088293432,0.1365491
1.073901392,0.136503651
1.074397669,0.136521235
1.078859505,0.136697224
1.079355783,0.136709525
1.080849273,0.136723555
1.08134555,0.136719956
1.08283208,0.13668888
1.086308323,0.136584685
1.088789709,0.136544335
1.083328358,0.136674045
1.089285986,0.13654165
1.085812046,0.136597394
1.083826937,0.136658321
1.089782264,0.136540529
1.085315768,0.136611401
1.084323214,0.136642263
1.090278541,0.136541025
1.084819491,0.136626438
1.090779989,0.136542816
1.091276264,0.136545496
1.091767372,0.136549308
1.09226365,0.136553668
1.092759927,0.136558439
1.093256204,0.136563157
1.093752481,0.136567358
1.094248759,0.136570479
1.094750126,0.136572075
1.095246402,0.136572335
1.09573759,0.136570467
1.096233868,0.136566286
1.096730145,0.136559083
1.097226422,0.136549117
1.097722699,0.136536697
1.098218977,0.136522435
1.098715254,0.136506904
1.099211531,0.136490677
1.099707808,0.136474282
1.100204086,0.136458235
1.100700363,0.136442996
1.10119664,0.136428853
1.101692917,0.136416115
1.102185122,0.136404978
1.102681401,0.136395367
1.103181749,0.136387231
1.103678026,0.136380755
1.104174304,0.136375575
1.104670581,0.136371756
1.105166858,0.136368971
1.105663135,0.136366986
1.106153596,0.136365215
1.106649875,0.136363261
1.107151967,0.136360795
1.107648244,0.136357611
1.108144522,0.136353469
1.108640799,0.136348356
1.109137076,0.13634271
1.109633353,0.136336817
1.110129267,0.136331207
1.110625544,0.136326205
1.111122185,0.136322118
1.111618462,0.1363191
1.11211474,0.136317147
1.112611017,0.136316236
1.113107294,0.13631615
1.113603571,0.136316768
1.114104938,0.136317959
1.114601214,0.136319221
1.115092403,0.136320758
1.11558868,0.136322168
1.116084958,0.136323517
1.116581235,0.136324821
1.117077512,0.136326159
1.117573789,0.13632761
1.118076407,0.136329426
1.118572683,0.136331347
1.119062621,0.136333943
1.119558898,0.136336918
1.120055176,0.136340422
1.120551453,0.136344365
1.12104773,0.136348704
1.121544007,0.136353321
1.122040285,0.136358066
1.122536562,0.1363628
1.123032839,0.136367377
1.123529116,0.136371696
1.124025394,0.13637572
1.124521671,0.136379521
1.125017948,0.13638325
1.125514225,0.13638708
1.126010503,0.136391174
1.12650678,0.136395641
1.127003057,0.136400719
1.127499334,0.136406184
1.127995612,0.136411775
1.128491889,0.136417172
1.128988166,0.136421659
1.129478834,0.136424908
1.129975113,0.136427227
1.130476998,0.136427407
1.130973275,0.136424253
1.131469552,0.136417155
1.13196583,0.136406438
1.132462107,0.136391798
1.132958384,0.136373107
1.133450784,0.136350718
1.133947062,0.136323057
1.134447216,0.136291391
1.134943493,0.136254725
1.13543977,0.136213669
1.135936048,0.136168568
1.136432325,0.136119937
1.136928602,0.136068353
1.137426455,0.136014043
1.137922731,0.135958847
1.138417434,0.13590264
1.138913711,0.135846375
1.139409988,0.135790719
1.139906266,0.135736508
1.140402543,0.135684381
1.14089882,0.135635129
1.141399319,0.135588507
1.141895595,0.135546618
1.142387652,0.135508681
1.142883929,0.135475004
1.143380206,0.135445714
1.143876484,0.135420614
1.144372761,0.135399767
1.144869038,0.135382527
1.145369829,0.135368812
1.145866105,0.135358006
1.14635787,0.135349634
1.146854147,0.135343551
1.147350424,0.135339242
1.147846702,0.135337152
1.148342979,0.135336143
1.148839256,0.135336199
1.149335533,0.135337023
1.149831811,0.135338438
1.150328088,0.135340547
1.150824365,0.135343234
1.151320642,0.135346723
1.15181692,0.135350972
1.152310631,0.135356141
1.152801448,0.135362292
1.153300291,0.13537001
1.153802028,0.135378642
1.154298306,0.135388814
1.154794583,0.135400208
1.15529086,0.135412991
1.155787137,0.135426875
1.156283415,0.135441913
1.156775252,0.135457407
1.15727153,0.135474293
1.157772246,0.135491356
1.158268524,0.135508913
1.158764801,0.135526674
1.159261078,0.135544446
1.159757355,0.135562018
1.160253633,0.135579134
1.160747971,0.135595495
1.161244249,0.135611363
1.161742464,0.135626273
1.162238742,0.13564038
1.162735019,0.135653348
1.163231296,0.135664989
1.163727573,0.135675147
1.164223851,0.135683683
1.164723642,0.135690595
1.165219918,0.135695732
1.165712682,0.135699287
1.16620896,0.13570127
1.166705237,0.135701842
1.167201514,0.135701247
1.167697791,0.135699715
1.168194069,0.135697259
1.168695736,0.135693706
0.965712952,0.137635606
0.966209229,0.1376344
0.966705506,0.137632378
0.967201784,0.13762891
0.967698061,0.137623622
0.968194338,0.137616684
0.968690615,0.137608025
0.969186893,0.137597766
0.96968317,0.137586018
0.970179447,0.137572912
0.972660833,0.137489795
0.973157111,0.137470533
0.970675724,0.137558539
0.97364734,0.137451347
0.972164556,0.137508402
0.971172002,0.137542934
0.974143619,0.137431361
0.971668279,0.137526175
0.974645942,0.137411646
0.97514222,0.137392347
0.975638497,0.137373621
0.97811528,0.137294714
0.97861616,0.137282589
0.976134774,0.137355649
0.977619001,0.137308148
0.979112438,0.137272207
0.976631051,0.137338618
0.977127329,0.137322697
0.979608715,0.137263316
0.980104992,0.137255869
0.980601269,0.13725013
0.983082655,0.137242795
0.983578933,0.137243388
0.981097547,0.137246122
0.982586378,0.137242391
0.98407521,0.137243988
0.981594672,0.137243662
0.984571487,0.137244354
0.982090949,0.137242579
0.987549151,0.137237683
0.988045428,0.137234482
0.985067764,0.137244428
0.987052873,0.137240271
0.988541705,0.13723044
0.985570343,0.137244125
0.986556596,0.137242134
0.989037982,0.13722557
0.986066618,0.137243338
0.989538509,0.137219782
0.990034784,0.13721343
0.990526814,0.137206317
0.991023091,0.137198408
0.991519369,0.137189522
0.992015646,0.137179455
0.992511923,0.137168103
0.9930082,0.137155461
0.993504478,0.137141651
0.994000755,0.137126896
0.994497032,0.13711146
0.994993309,0.137095571
0.995489587,0.137079414
0.995985864,0.137063146
0.996482141,0.13704687
0.996978418,0.137030678
0.997474696,0.137014642
0.997970973,0.136998857
0.99846725,0.136983422
0.998963527,0.136968477
0.999459805,0.136954141
0.999956082,0.13694056
1.000452359,0.13692784
1.000943758,0.136916213
1.001440037,0.136905409
1.001941191,0.136895787
1.002437468,0.136887385
1.002933745,0.136880135
1.003430023,0.136874255
1.0039263,0.136869768
1.004422577,0.136866583
1.004916188,0.136864709
1.005412466,0.13686395
1.005911409,0.136864165
1.006407686,0.136865032
1.006903963,0.136866439
1.007400241,0.136868263
1.007896518,0.136870435
1.008392795,0.136873097
1.008891859,0.136876217
1.009388136,0.136879669
1.009881627,0.13688366
1.010377904,0.13688793
1.010874181,0.136892438
1.011370459,0.136897089
1.011866736,0.136901757
1.012363013,0.136906226
1.012864242,0.136910476
1.013360517,0.136913925
1.013851845,0.136916543
1.014348122,0.13691805
1.014844399,0.136918183
1.015340676,0.136917203
1.015836954,0.136914895
1.016333231,0.136911061
1.016834465,0.136905572
1.017330741,0.136898816
1.017822063,0.13689061
1.01831834,0.136881208
1.018814617,0.136870847
1.019310894,0.136859824
1.019807172,0.13684836
1.020303449,0.136836635
1.020799726,0.136824722
1.021296003,0.136812647
1.021792281,0.136800404
1.022288558,0.13678802
1.022784835,0.136775607
1.023281112,0.136763445
1.02377739,0.136751913
1.024269462,0.136741613
1.024765741,0.136732636
1.025266221,0.136725814
1.025762499,0.13672131
1.026258776,0.136719353
1.026755053,0.136719328
1.02725133,0.136721363
1.027747608,0.136725277
1.028237705,0.136730578
1.028733984,0.13673805
1.029236439,0.136746979
1.029732717,0.136757943
1.030228994,0.136769798
1.030725271,0.136782096
1.031221548,0.136793869
1.031717826,0.136804059
1.032213376,0.136811844
1.032709653,0.136816359
1.033206657,0.136818231
1.033702935,0.136816941
1.034199212,0.136812377
1.034695489,0.136805033
1.035191766,0.136795043
1.035688044,0.136782908
1.036189047,0.136768509
1.036685323,0.136752855
1.037176875,0.136735579
1.037673153,0.136717273
1.03816943,0.136698324
1.038665707,0.136679217
1.039161984,0.136660433
1.039658262,0.136642476
1.04016066,0.136625597
1.040656935,0.136610642
1.041147093,0.136597369
1.041643371,0.136585742
1.042139648,0.136575878
1.042635925,0.136567549
1.043132202,0.136560922
1.04362848,0.136555949
1.044124757,0.136552967
1.044621034,0.136551749
1.045117311,0.136552212
1.045613589,0.136554064
1.046109866,0.136557402
1.046606143,0.136562199
1.04710242,0.1365686
1.047598697,0.13657662
1.048094975,0.136586325
1.048591252,0.136597312
1.049087529,0.136609562
1.049583806,0.13662261
1.050080084,0.136636315
1.050576361,0.136650358
1.051072638,0.136664558
1.051563087,0.136678317
1.052059366,0.136692642
1.05256147,0.136706452
1.053057747,0.136720222
1.053554024,0.136733985
1.054050302,0.136748014
1.054546579,0.136762154
1.055042856,0.136776018
1.055534892,0.136788952
1.056031171,0.136801096
1.056531688,0.136811549
1.057027965,0.136819986
1.057524242,0.136826066
1.05802052,0.13682962
1.058516797,0.136831019
1.059013074,0.136829767
1.059510563,0.136825729
1.06000684,0.136818343
1.060501906,0.136807849
1.060998183,0.1367943
1.06149446,0.136778151
1.061990738,0.136759848
1.062487015,0.136739862
1.062983292,0.136718654
1.063483572,0.136696127
1.063979848,0.136673523
1.064472124,0.136650331
1.064968401,0.136626991
1.065464678,0.136603761
1.065960956,0.136580875
1.066457233,0.136558524
1.314595857,0.13487604
1.315092135,0.134869255
1.309633085,0.134964978
1.309132427,0.134971417
1.31409958,0.134883754
1.315588412,0.134863441
1.310129362,0.134957551
1.308636149,0.134976819
1.302188926,0.134901024
1.301697427,0.134887734
1.317573521,0.134848055
1.313603303,0.134892294
1.316084689,0.134858471
1.310625639,0.134949305
1.308144253,0.134980846
1.302685203,0.134914006
1.301201151,0.134874612
1.317076032,0.134851041
1.313103024,0.13490156
1.316579755,0.134854471
1.312114471,0.134921092
1.311618194,0.134930889
1.311121917,0.13494036
1.307647976,0.134983457
1.303181481,0.134926649
1.300700094,0.13486091
1.312606746,0.134911326
1.307151699,0.134984557
1.30516659,0.134968399
1.305662867,0.134975394
1.303677758,0.134938672
1.300203817,0.134847491
1.306655421,0.13498353
1.304670312,0.134959821
1.306159144,0.134980493
1.296233599,0.134747516
1.295737322,0.134736271
1.304174035,0.134949813
1.29970754,0.1348341
1.296729876,0.134758883
1.295241045,0.13472506
1.299211263,0.13482079
1.297230813,0.134770781
1.294744767,0.134713798
1.298714985,0.134807674
1.291767104,0.134643691
1.297727089,0.134782498
1.29424849,0.13470246
1.298218708,0.134794945
1.292263381,0.134655646
1.291270827,0.134631716
1.293754515,0.134690937
1.292759658,0.134667523
1.290774549,0.134619863
1.293258238,0.134679425
1.290278272,0.134608278
1.289778845,0.134597269
1.289282567,0.134586737
1.28878944,0.134577803
1.288293163,0.1345699
1.287796886,0.134563869
1.287300609,0.1345597
1.286804331,0.134557431
1.286308054,0.134556962
1.285806608,0.134558674
1.285310329,0.134562447
1.284819222,0.134568456
1.284322945,0.134576414
1.283826668,0.134585488
1.283330391,0.134595666
1.282834113,0.134607231
1.282337836,0.134619977
1.281841559,0.134633788
1.281345282,0.134648599
1.280849004,0.134664338
1.280352727,0.134680821
1.27985645,0.134697817
1.279360173,0.134715003
1.278863895,0.134732047
1.278367618,0.134748615
1.277871341,0.134764332
1.277375064,0.13477893
1.276878786,0.134792353
1.276382509,0.134804757
1.275886232,0.134816346
1.275389955,0.134827373
1.274893677,0.134838094
1.274401471,0.134848857
1.273905195,0.134859846
1.273404846,0.134871664
1.272908568,0.134883923
1.272412291,0.13489675
1.271916014,0.13491003
1.271419737,0.134923576
1.270923459,0.134937224
1.270432997,0.134950749
1.269936721,0.134963905
1.269434628,0.134977211
1.26893835,0.134989969
1.268442073,0.135002592
1.267945796,0.135015168
1.267449519,0.135027807
1.266953241,0.135040565
1.266457327,0.135053534
1.26596105,0.135066655
1.26546441,0.135080112
1.264968132,0.135093954
1.264471855,0.135108523
1.263975578,0.135124243
1.263479301,0.135141598
1.262983023,0.135161198
1.262481658,0.135183293
1.261985379,0.135208235
1.261494192,0.13523524
1.260997914,0.135265388
1.260501637,0.135298181
1.26000536,0.1353333
1.259509083,0.135370501
1.259012805,0.13540942
1.258510189,0.135449776
1.25801391,0.135491545
1.257523974,0.135531934
1.257027696,0.135573139
1.256531419,0.135613328
1.256035142,0.135651978
1.255538865,0.135688501
1.255042587,0.135722549
1.25454631,0.135753797
1.254050033,0.135782008
1.253553756,0.13580702
1.253057478,0.135828741
1.252561201,0.135847006
1.252064924,0.135861518
1.251568647,0.135871517
1.251072369,0.135877024
1.250576092,0.1358768
1.250079815,0.135871916
1.249583538,0.135861683
1.24908726,0.135846605
1.248590983,0.135825922
1.248094706,0.135799676
1.247598429,0.13576842
1.247107759,0.13573246
1.246611483,0.135692819
1.246109597,0.135648153
1.24561332,0.135601074
1.245117042,0.135551151
1.244620765,0.135498939
1.244124488,0.13544525
1.243628211,0.135390762
1.24313581,0.135336162
1.242639534,0.135283147
1.242139379,0.135230212
1.241643102,0.135180978
1.241146824,0.135135203
1.240650547,0.135093324
1.24015427,0.135055969
1.239657993,0.135022694
1.23916014,0.134993631
1.238663863,0.134967915
1.238169161,0.134945759
1.237672884,0.134926125
1.237176606,0.13490857
1.236680329,0.134892392
1.236184052,0.134876901
1.235687775,0.134861361
1.235187277,0.13484569
1.234690999,0.134828943
1.234198943,0.134812015
1.233702666,0.13479411
1.233206388,0.134775593
1.232710111,0.1347566
1.232213834,0.134737256
1.231717557,0.134717594
1.231215975,0.134697793
1.230717204,0.134677482
1.230226232,0.134657798
1.229732448,0.13463816
1.22923617,0.134618629
1.228739893,0.134599667
1.228243616,0.134581574
1.227747339,0.134564399
1.227251061,0.134548499
1.226754784,0.134533763
1.226258507,0.134520453
1.22576223,0.13450843
1.225265952,0.134497906
1.224769675,0.13448876
1.224273398,0.134481349
1.223781766,0.134475301
1.22328549,0.134471386
1.222784566,0.134468734
1.222288289,0.134468292
1.221792012,0.134469622
1.221295734,0.134473607
1.220799457,0.134480028
1.22030318,0.134488809
1.219811342,0.134499534
1.219315066,0.134512524
1.218814348,0.134528818
1.218318071,0.134548006
1.217821794,0.134570685
1.217325516,0.134596846
1.216829239,0.134626703
1.216332962,0.134660348
1.215838623,0.134697812
1.215342346,0.134738745
1.21484413,0.134783314
1.414341685,0.133253907
1.413845406,0.133272027
1.41335503,0.133290301
1.412858753,0.133309636
1.412362476,0.133329524
1.411369921,0.133370834
1.411866198,0.133349943
1.410873644,0.133392212
1.410377367,0.133414064
1.409881089,0.133436418
1.405910871,0.133631592
1.405414594,0.133658158
1.409384812,0.133459288
1.400948099,0.133952089
1.401444376,0.133914038
1.406407149,0.133605697
1.404918317,0.133685638
1.408888535,0.133482643
1.400451822,0.1339914
1.401940653,0.133877389
1.406903426,0.133580316
1.40442204,0.133714234
1.408392258,0.133506476
1.396977881,0.134276109
1.397474158,0.134237963
1.399955544,0.134031809
1.402442978,0.133841268
1.407399703,0.133555332
1.403925762,0.13374411
1.40789598,0.133530719
1.402939254,0.133807821
1.396481604,0.134311492
1.397970435,0.134197924
1.399459267,0.134072994
1.403429485,0.133775291
1.395985326,0.134343399
1.398471317,0.13415586
1.398967593,0.134114661
1.395489049,0.134371207
1.393007663,0.134431253
1.392511386,0.134425336
1.394991924,0.134394424
1.39350394,0.134431051
1.392015108,0.134413748
1.394495646,0.134412446
1.394000217,0.134424971
1.391518831,0.134398237
1.391016254,0.134376833
1.390519975,0.134350676
1.390029999,0.134321482
1.388541168,0.134213407
1.38804489,0.134171947
1.389533722,0.134288319
1.389037445,0.134252217
1.387548613,0.13412815
1.387048088,0.134082571
1.38655181,0.134035292
1.386059781,0.133989194
1.385563504,0.133942666
1.385067227,0.133897429
1.38457095,0.133854248
1.384074672,0.133814133
1.383578395,0.133777138
1.383082118,0.133744033
1.382585841,0.133714542
1.382089563,0.133689965
1.381593286,0.133669821
1.381097009,0.133655686
1.380600732,0.133647015
1.380104454,0.133644604
1.379613088,0.133647427
1.379116812,0.133656629
1.378615623,0.133670248
1.378119345,0.133690276
1.377623068,0.133715521
1.377126791,0.133747671
1.376630514,0.133786368
1.376134236,0.133831022
1.375642836,0.133880796
1.37514656,0.133934727
1.374645405,0.133993545
1.374149127,0.1340539
1.37365285,0.134115701
1.373156573,0.134177967
1.372660296,0.134239874
1.372164018,0.134300636
1.371670406,0.134359637
1.37117413,0.134415482
1.370675187,0.134469161
1.370178909,0.134518477
1.369682632,0.134563873
1.369186355,0.134605081
1.368690078,0.134641819
1.3681938,0.134674476
