"Region: Body 1.Ramp1: Position[X] (m)","Region: Body 1.Ramp1: Skin Friction Coefficient","Region: Body 1.Ramp2: Position[X] (m)","Region: Body 1.Ramp2: Skin Friction Coefficient"
1.8343222008872966,310.9641213434239,2.395673182670277,2072.994680222915
1.8345703395159898,310.95307577592786,2.3958647677115756,2071.1017679271727
1.8348178723073993,310.94139423635716,2.3960563527544374,2103.846288448266
1.835066010991768,310.92949245798224,2.3962479377979125,2095.1370117861475
1.8353147553988938,310.9171967512489,2.3964395228419417,2108.867191775721
1.835562894026529,310.90489578576165,2.396631107887721,2098.5272656951875
1.8358110326509856,310.89247807916536,2.396822692931977,2115.632707848069
1.83605917127968,310.8803956980065,2.3970142779767722,2099.072326067925
1.8363073099083742,310.8685537030436,2.39720586302099,2112.8311441788196
1.8365554485370694,310.8568801167916,2.397397448062319,2090.3875128099853
1.8368057075887312,310.8453908421,2.3975890331036527,2083.8349824688453
1.8370538460222414,310.8346959828694,2.39778061814499,2090.9008150395343
1.8372998644189162,310.8242818646705,2.39797220318789,2072.679937581153
1.837548003047611,310.81412658109736,2.398163788231403,2057.9804733356023
1.8377961416763062,310.8043101076247,2.39835537326976,2069.194576752895
1.838044280300764,310.7954890500615,2.398546958313344,2049.895873869714
1.8382924189294596,310.78669065784834,2.3996964685559465,2045.491423817589
1.8385405575581544,310.7785478587636,2.3998916853725194,2052.2589784153843
1.8387916100982067,310.77067725713755,2.3987385433594897,2056.5630062432733
1.8390397484669019,310.76346778811944,2.3995048835145716,2046.3817015589796
1.8392849734421226,310.75623333335955,2.400083269228952,2045.0144976448648
1.8395331120687,310.74964530368635,2.3989301283950786,2057.054380426224
1.8397812506931583,310.74323101716044,2.399313298478909,2045.6022817336427
1.8400293893218547,310.7366411881753,2.4002712236848165,2051.164600835146
1.84027752795055,310.73048509196633,2.3991217134374834,2058.8974337359177
1.840525666574048,310.72416616609047,2.40046280873016,2051.1887056097553
1.8407738052043332,310.71774360496477,2.4019994399565108,2093.2814011242117
1.8410219438361097,310.71123107879316,2.401807856193198,2084.41059902727
1.8412700824632173,310.70446909600577,2.400654393770634,2060.115234691619
1.8415182210897953,310.6975750679607,2.402187074107102,2086.068436272946
1.841766359718492,310.69018295076006,2.4016123189786978,2084.5807030486053
1.8420144983429512,310.68269559423806,2.400845978811972,2059.613537252813
1.8422626369716484,310.674562503619,2.402761829229236,2106.4032436104494
1.8425107756002328,310.666006525317,2.4029534142717153,2089.6583472332827
1.8427589142268115,310.6571334323434,2.4023786591473515,2094.016782660619
1.8430070528577394,310.6477623374093,2.4014207339372855,2069.0930130411184
1.8432551914843178,310.6379250367482,2.4010375638544126,2053.82787736221
1.843503330110897,310.62731416596057,2.4039113394816214,2051.8653582991155
1.843999607364055,310.60539919235964,2.4037197544319926,2065.366170968282
1.8442477459927522,310.59369297603297,2.4025702441935723,2094.071695619383
1.8437514687353571,310.61662229000797,2.403144999318926,2067.5679081433045
1.8464786308921313,310.46978037297725,2.4012291488958772,2062.946996560314
1.8462328550138634,310.4847919842693,2.4041029245386394,2046.8162655654892
1.844492824378155,310.58178418616393,2.403528169390401,2078.1709703874703
1.8467267697303664,310.4538627794963,2.403336584354661,2078.739363663184
1.8459847163851646,310.4997828575884,2.4042945095877486,2029.0787233143872
1.8447409632834024,310.5688577166992,2.4044860946282967,2037.9331712970602
1.8469772708999594,310.43799260998367,2.406593530110539,2069.776540787512
1.8457365777607038,310.5143331387779,2.406785115153091,2073.6574397579434
1.8449921618788463,310.55616340002024,2.4046776796697076,2023.5062160598022
1.8472254095265397,310.42154430167966,2.4052524347952415,2008.7259363547635
1.8454884391320052,310.5287007586452,2.405444019836726,2025.1043374616315
1.8452403005054254,310.54220649413537,2.406401945074803,2061.051826561674
1.8484664661626038,310.33590310261934,2.4069767001946634,2081.5700406810233
1.8487146047608942,310.3180314389525,2.404869264712221,2023.275891982499
1.8474735481531201,310.40508836301257,2.40506084975376,2024.2359787073804
1.849954934427403,310.2277784546418,2.405635604878136,2045.994590163152
1.8494586571784786,310.26395438206595,2.4087009655714757,2117.1957510348057
1.849706795807178,310.2461735742486,2.4085093805288906,2111.6635847967605
1.84821796403498,310.35353316334886,2.40621036002851,2036.937690505193
1.84896237991896,310.3001990427324,2.4071682852304717,2080.9970187576646
1.8477216867775814,310.3881300043179,2.405827189923511,2028.378337597114
1.8502030730561037,310.2095023427275,2.4088956894618594,2099.6455008881667
1.8492105185455412,310.2823156291896,2.408317795487408,2121.328706091743
1.8479698254062809,310.370904762885,2.4060187749750743,2035.6540703076557
1.8504543014439738,310.19045609300036,2.4073598702719927,2090.7111540539986
1.8507024397943703,310.1725691370979,2.409087273502048,2101.2540243190238
1.850947488940086,310.1537101868839,2.4081262104467887,2108.8106328903145
1.851195627566668,310.13464847063176,2.4075514553144823,2098.031841439908
1.8514437661953684,310.1157261839272,2.41081153512948,2102.106610156757
1.8516919048283067,310.09623495532185,2.4110031191778956,2093.7957517110885
1.851940043457007,310.07658230919026,2.4092757206962916,2114.454585575401
1.8521881820772332,310.05654604501325,2.407934625402752,2109.5063532519043
1.8524384228138586,310.0361207545276,2.4077430403579068,2090.2916421508808
1.8526865612569776,310.0157430984739,2.4106168159902133,2089.9624243690632
1.8529325979612183,309.9950669412967,2.4111915711284637,2098.4740707614183
1.853180736587801,309.9738542108094,2.409467305737754,2097.8445338168976
1.85342887522074,309.95281441979046,2.4104252309475918,2106.773583468952
1.8536770138494412,309.9313069968375,2.4113831561737586,2106.9450251811068
1.853925152469668,309.9101121103225,2.4096588907756855,2111.4604217144674
1.8541732910976998,309.8884930718851,2.410233645911785,2082.5486994993444
1.8544214297290498,309.86701296295314,2.4115747412174353,2110.7314703603256
1.8546695683563033,309.84506516824825,2.4098504758158215,2109.124586382521
1.8549177069823568,309.8236246028812,2.410042060865422,2096.182023693951
1.8551658456089404,309.8019585878293,2.411766326263314,2103.4111947765687
1.8554139842376427,309.7806776941904,2.4132990066215267,2149.0868307842647
1.8556621228705825,309.7592555443627,2.4131074215744426,2147.4448452415886
1.8559102614992844,309.73821940018,2.4119579113072382,2122.011600740854
1.8561584001245666,309.71714688732726,2.413490591659527,2144.3702759150397
1.8564065387522097,309.69649222451517,2.4129203654615714,2145.3872656356725
1.856654677377977,309.67587980817655,2.412149496347928,2123.6247306591113
1.8569028160035017,309.6556081839788,2.4127287818457104,2138.5655642991173
1.8571509546300862,309.6355443088463,2.4136821766997314,2148.9457544016136
1.8573990932630269,309.61578244894457,2.4123410813894797,2124.7104285382825
1.8576472318917296,309.59630048983064,2.4125326664321336,2127.4966373347115
1.8578953705119579,309.57714847196974,2.4138737617494006,2153.6830617167966
1.8581410337075213,309.5588130463906,2.4140653467958324,2145.8297966774144
1.8583891725597597,309.5396914724288,2.4142569318317073,2155.728181460322
1.8586397863991277,309.5217078140185,2.414448516874397,2169.4361882569124
1.858887925024653,309.5032132614859,2.415023272014359,2152.436172533191
1.8591360636512382,309.48558148064,2.4152148570582144,2167.7792787047933
1.8593842022799418,309.46784962598184,2.414640101918583,2145.2068698123635
1.8596323409128834,309.4504107180309,2.4148316869637565,2173.192907017345
1.859880479541587,309.4330744502704,2.415406442101959,2170.8918673087783
1.8601272247472806,309.4162125067272,2.4155980271458266,2166.9569465086893
1.8603753634988316,309.398879161954,2.4157896121896982,2166.5531541433047
1.8606248954202842,309.38187471117993,2.4159811972325334,2164.2850249059043
1.8608730340458106,309.36502435745257,2.416172782274273,2177.3532460090582
1.8611211726723966,309.34825612059035,2.4163643673169948,2167.2100270544006
1.8613693113053387,309.3311874550619,2.416555952360197,2157.4955513969494
1.861617449934043,309.3144727490103,2.416747537408373,2170.5967930270804
1.861865588562748,309.29760611158247,2.4169391224600276,2167.2065311436168
1.862115060026283,309.2806999776751,2.4171307075066557,2154.091909251121
1.8623631985323583,309.2641063201744,2.4173222925447235,2152.8852948668896
1.8626100044446257,309.2473079220771,2.4175138775886262,2162.105593262637
1.8628581430733309,309.23069710012106,2.4177054626325294,2158.4043503889166
1.863106281702036,309.2142532035487,2.4178970476751394,2134.1997927227594
1.863354420326504,309.1976289598462,2.418088632716895,2146.2235207302733
1.8636025589552099,309.18157993848814,2.4182802177542,2129.437034283443
1.8638506975839149,309.16531560208534,2.418471802797704,2142.012108349879
1.8641012751338901,309.1491432810851,2.418663387845275,2130.5162885130135
1.8643494135461827,309.13376599609245,2.4188549728852884,2116.1490249588064
1.8645951134657952,309.1184337294707,2.4190465579211686,2134.710289332266
1.864843252094501,309.10316094884746,2.4192381429649794,2114.817671455418
1.8650913907189695,309.0882301735024,2.419429728008913,2122.9056041173817
1.8653395293476762,309.0735385590815,2.4196213130528506,2119.4214479493344
1.8655876679763819,309.0590128889248,2.419816385413763,2116.3118847405763
1.8658358066050884,309.0447398273011,2.42000796937833,2115.2436332752027
1.8660864012153944,309.0305180407963,2.42019606819762,2112.873803367715
1.8663345396221687,309.0166951496254,2.4203876532449926,2110.5974101091615
1.8665802224869705,309.0031682698049,2.420579238286747,2100.8568957234093
1.866828361115677,308.98953313786365,2.420770823328504,2107.383923022554
1.867076499744384,308.9764247467501,2.420962408370265,2116.4182917916937
1.8673246383688535,308.9633174047712,2.4211539934083977,2110.0283072431134
1.867572776997561,308.9503690715663,2.421345578452365,2092.3842562540754
1.8678209156285368,308.9375583943412,2.4215371634963327,2091.971622247838
1.8680690542530065,308.9253389298648,2.4217324608096846,2098.361438985336
1.8683171928794449,308.91294118128945,2.421924044710742,2104.7634581789603
1.8685653315081523,308.9009173389595,2.422111918636469,2086.3540759045163
1.8688134701368597,308.8892843078305,2.4223035036828944,2093.579282298327
1.8690616087613297,308.8780837719391,2.4224950887246806,2103.8172147783584
1.8693097473900377,308.8671293468822,2.4226866737664703,2082.779834825803
1.8695578860187452,308.85700394187006,2.4228782588082627,2092.8215679723376
1.8698039004616596,308.84674186915606,2.423069843851617,2087.2593484819845
1.8700520392782778,308.83734606665763,2.423261428895585,2083.361870948896
1.870302301900632,308.82751778710264,2.423453013940106,2075.0469142379434
1.87055044052934,308.8187190422254,2.4236445989825857,2091.6272668704337
1.8707985791580486,308.81010092575815,2.423836184029816,2086.8933379317837
1.871046717786757,308.80229868955706,2.4240277690846006,2085.2541916575447
1.871294856411228,308.795376574024,2.424219354132533,2070.8821445343274
1.871542995039937,308.7889520318812,2.4244109391743507,2084.3108105315955
1.8717879833342443,308.78360913075926,2.4246025242161715,2076.7323453263184
1.872036122237107,308.77931824514866,2.424794109257995,2083.1578063978372
1.8722874109218255,308.7749573109271,2.4249856942956707,2085.5193292033664
1.8725355495505343,308.7724929112992,2.4251772793396715,2071.741276528899
1.8727836881792435,308.7702105714677,2.425368864384222,2096.4274016877666
1.8730318268037152,308.7692948944425,2.4255604494270506,2080.656765838716
1.8732799654324248,308.76907110775517,2.425752034477536,2077.4386812743674
1.8735281040611338,308.77010941754145,2.4259436195263264,2096.610995626418
1.8737758186024318,308.77188737033873,2.4261352045710654,2079.8966253895805
1.8740239572685773,308.774922538518,2.4263267896129137,2099.81002651919
1.874272519943025,308.7790014340832,2.4265183746547656,2098.6686655516105
1.8745206585717349,308.7842375232135,2.42670995969662,2088.06269837433
1.8747687971962073,308.7907394444869,2.426901544740038,2085.3119323514547
1.8750169358249174,308.79829253036684,2.4270931297840677,2105.0743065502934
1.875265074453627,308.8068376585826,2.4272847148286507,2096.1109725267097
1.8755132130823375,308.81698984156037,2.427476299873375,2093.297828978699
1.8757636538814895,308.82787909031117,2.427667884915562,2087.411620767147
1.876011792302954,308.83912805743716,2.4278594699568075,2102.7754375893496
1.876257628964231,308.85251922113747,2.428051054998487,2105.968135987589
1.8765057675929413,308.86654598030026,2.428242640040366,2092.161546242824
1.8767539062216518,308.8814186986591,2.428434225082248,2109.1221384880023
1.8770020448461249,308.8971380588458,2.4286258101241334,2101.440193062435
1.8772501834748363,308.91365205484317,2.428817395161871,2100.8826607254446
1.8774983221035468,308.93087244426215,2.429008980205933,2117.1440058605654
1.8777494843791906,308.94873320481076,2.429200565250545,2097.7526417695503
1.8779976227415536,308.96661447991715,2.429392150294673,2105.076733874378
1.878242737985443,308.9852484495205,2.4295837353413634,2103.1368756040815
1.8784908766141541,309.004352335065,2.4297753203774963,2114.270691611829
1.8787390152386276,309.02357055726645,2.4299669054147333,2113.9970630962957
1.8789871538673395,309.04291398393013,2.430158490456703,2110.9619921183485
1.8792352924960507,309.06228183857377,2.430350075498615,2104.4330809605635
1.879483431118288,309.0819973140708,2.430541660540531,2119.996217138383
1.8797315697480594,309.1009138298874,2.4307361397782046,2113.1787684208975
1.879979708379008,309.12022205898296,2.430927723947747,2109.55968459809
1.8802278470066607,309.13907367676785,2.431116415679537,2117.1039768222927
1.8804759856353725,309.1577695853136,2.4313080007283188,2106.3925414431565
1.8807241242640844,309.1759267265569,2.4314995857693305,2117.3086861538422
1.8809722628885595,309.1935991973389,2.431691170811204,2113.2780230518006
1.881220401517272,309.211071578242,2.4318827558541796,2131.828059901094
1.8814685401510043,309.2279358169146,2.4320743408961794,2123.3827809620175
1.8817166787765385,309.24416317471804,2.432265925938121,2116.6434719225745
1.8819648174002312,309.2599235902806,2.432457510980066,2124.7467396296383
1.8822129560278846,309.2754954409754,2.4326533864868325,2122.3885567420116
1.8824610946565974,309.2899145053338,2.4328449702317596,2124.007130823715
1.8827092332810726,309.3039035621417,2.4330322660996675,2108.9981432477866
1.8829573719097858,309.3175816475521,2.4332238511508444,2119.6524699511065
1.8832055105384986,309.33017861524496,2.433415436197594,2128.7003160287763
1.883450698681974,309.3423823110876,2.4336070212337866,2116.8807430201996
1.8836988375708625,309.35416942982187,2.4337986062710826,2118.074280167392
1.8839499264214605,309.36543756818645,2.4339901913131117,2103.157112719012
1.8841980650491146,309.3762123491674,2.434181776355084,2115.0219172771995
1.8844462036778282,309.38604765472957,2.4343733613970584,2121.338849303865
1.8846943423065419,309.3954796086962,2.434564946439312,2109.3872356972997
1.8849424809310182,309.40495661359967,2.434756531480399,2101.1978799212484
1.8851906195597323,309.4131268686096,2.434948116526385,2112.8849613172747
1.8854365771893258,309.4211467493656,2.435139701573662,2101.6677278980055
1.8856847160061991,309.42851452079833,2.435331286614732,2101.7119629970503
1.885935035442696,309.4354537903303,2.435522871656664,2107.1213823610897
1.8861831740703507,309.44201149927306,2.4357144566996984,2095.8316869278933
1.8864313126990648,309.44758002054544,2.4359060417417564,2102.2343885080613
1.8866794513235419,309.4526050465853,2.436097626783757,2099.531077198118
1.886927589952257,309.45720246943466,2.436289211825761,2105.370159284049
1.8871757285809712,309.46152515709133,2.4364807968662126,2096.373899023552
1.887424412457585,309.4646235625603,2.4366723819055336,2093.2678021528773
1.8876725510406343,309.4673840466324,2.4368639669476684,2088.5421304775086
1.8879201444649967,309.4689142289877,2.437055551996771,2099.3845780687016
1.8881682830915931,309.46948329825324,2.4372471370435784,2085.64460874755
1.8884164217160706,309.4692741360607,2.4374387220798286,2103.5017830995093
1.888664560344786,309.46864229702106,2.4376303071171828,2085.2194537696064
1.8889126989735008,309.46677882267034,2.4378218921595294,2098.7428039881797
1.8891608376022166,309.4645028686441,2.4380134772015736,2101.0035938867923
1.8894109409534974,309.4614189662374,2.4382050622433455,2101.421050868181
1.8896590794080934,309.4579306591048,2.4383966472895398,2092.4447840143275
1.8899052534862442,309.4525064763225,2.4385882323357184,2093.71667142167
1.8901533921128415,309.44647881366717,2.4387798173778643,2101.2383764855695
1.8904015307415571,309.4393001525894,2.4389714024201643,2098.4314258485174
1.8906496693660355,309.4309651985336,2.439162987461291,2097.4526896403872
1.8908978079947516,309.42141896268447,2.43935457250328,2103.361735665129
1.8911459466234675,309.41054254219256,2.4395461575463715,2114.459397919537
1.8913962535954296,309.39832305950586,2.4397410853843886,2100.0341869349763
1.8916443920366368,309.38570670802136,2.4399326694385906,2110.7599594797066
1.8918903625074976,309.3711023451433,2.4401209126864014,2109.729157592174
1.8921385011340952,309.3558771384494,2.4403124977375055,2104.9708068132227
1.8923866397585742,309.3394933520602,2.4405040827759406,2115.26329313388
1.8926347783872912,309.32213005450944,2.4406956678165783,2101.8228617210343
1.8928829170160077,309.30408718122044,2.440887252866679,2122.707467166104
1.893131055639332,309.28495821724096,2.441078837913543,2113.915545474952
1.8933791942701677,309.2650173031682,2.44127042294985,2121.996321967321
1.8318408146130762,311.01935572520335,2.44146200798726,2123.8155658331652
1.832088953241769,311.02049538002666,2.441657065440284,2119.188450295455
1.8105008926348745,309.1196561455943,2.441848649468302,2122.334725900348
1.810749031263558,309.1491881958439,2.442036763135005,2125.3503360658897
1.831592675984384,311.01620241090376,2.442228348178506,2121.4098764106925
1.8323370918662243,311.0199516437393,2.4424199332226784,2116.813622801384
1.829855705592013,310.94677049159975,2.442611518269053,2131.54512950493
1.8301038442164672,310.96100769843326,2.442803103313471,2132.209342165871
1.8268780420604303,310.7218751987648,2.442994688354654,2120.430232997732
1.8271285702057585,310.74234708507277,2.4431862733966985,2127.2464597953194
1.8340740622586023,310.97471201419194,2.443377858439845,2136.704825156881
1.8243966557820035,310.5162211794573,2.443569443479356,2120.2754160875643
1.8246447944106936,310.5375017051373,2.4437610285175957,2133.344838083693
1.8201782991154827,310.1206951880695,2.443952613562371,2121.988780583377
1.8204264377399328,310.14531135085565,2.444144198608362,2113.0515811594073
1.8179450514657711,309.8928050346429,2.4443357836468516,2132.027629935819
1.8181931900944581,309.9182399397685,2.4445273686911757,2134.2844663587857
1.8122378630271876,309.32247542459214,2.4447189537355003,2110.4765426209137
1.8124860016516349,309.34998073525645,2.44491053877879,2128.724185136682
1.8102527540061903,309.08945419372014,2.445102123820981,2114.745006337975
1.810997169892242,309.1789884075467,2.445293708858445,2111.811849437704
1.8313445373567505,311.0116783186659,2.4454852939007923,2114.303071763416
1.8325852304949177,311.017529138827,2.4456768789422,2112.7405765483245
1.8296075669633212,310.9310741673076,2.4458684639841937,2124.6127821802165
